S1_Std,S1_Diff,S1_Waveform,S2_Std,S2_Diff,S2_Waveform,Label
3.1534742745105744,0,13,10.875311489791914,5,34,0
3.111526956335105,4,13,10.78163252944562,11,34,0
3.1259558538149577,3,13,10.9024951272633,14,34,0
3.1412736270500212,0,13,11.03682925481771,4,34,0
3.244996147917589,4,13,11.084565846256679,-1,34,0
3.258281755772512,-4,13,11.025080498572335,-8,34,0
3.258281755772512,-1,13,11.03586879226099,-10,34,0
3.320481892737861,-6,13,11.21465113144408,-12,34,0
3.2731636072766044,2,13,11.186134274180693,0,34,0
3.298545133843099,0,13,11.04854741583707,10,34,0
3.3087157629509365,1,13,11.071332349812284,12,34,0
3.322709737548555,4,13,11.157795481187133,6,34,0
3.387270287414335,3,13,11.180268333094693,1,34,0
3.3385026583784545,-2,13,11.059276649039937,-7,34,0
3.328723479053192,-2,13,11.026531639640817,-8,34,0
3.4267185469483756,-7,13,11.240800683225373,-14,34,0
3.4514344843847153,1,13,11.240800683225373,1,34,0
3.4075797862999484,2,13,11.05276436010467,9,34,0
3.384434960226004,3,13,11.047823315024548,12,34,0
3.4495796845412934,5,13,11.242490827214406,9,34,0
3.563200808262145,2,13,11.313726176640479,0,34,0
3.504283093587046,-5,13,11.23638731977498,-6,34,0
3.492620792470892,-2,13,11.193587449964378,-8,34,0
3.5123211698248786,-4,13,11.411590599035703,-17,34,0
3.7167727937015465,-6,17,11.411590599035703,-2,34,0
3.785709973043366,4,17,11.260550608207398,9,34,0
3.7236541192758508,6,17,11.191067866830224,10,34,0
3.7491865784460505,3,17,11.33541353458267,12,34,0
3.82099463490856,3,17,11.358802753811688,1,34,0
3.8618130457079345,-2,17,11.340705445429752,-4,34,0
3.820157064833852,-7,17,11.274466727965455,-8,34,0
3.8298302834459914,0,17,11.413255451447672,-15,34,0
3.8298302834459914,1,17,11.438199158958545,-2,34,0
3.8281065815883446,2,17,11.28583182578936,8,34,0
3.813082742349031,3,17,11.217201076917537,9,34,0
3.8103018253151557,-3,17,11.301769772916098,8,34,0
3.9114703117881398,8,18,11.39805246522405,6,35,0
3.826016204879432,-4,18,11.328618627176043,-4,35,0
3.8366652186501757,-2,18,11.281063779626457,-7,35,0
3.834005738128206,-2,18,11.33915340755208,-13,35,0
4.06270845619028,-10,18,11.496799554658677,-10,35,0
4.093946750997134,3,18,11.349731274351829,7,35,0
4.085339643163098,7,18,11.243771609206583,9,35,0
4.093116172306864,2,18,11.344090972836916,13,35,0
4.082352263095385,-2,18,11.344090972836916,0,35,0
4.0694471368970975,2,18,11.220712989823776,-2,35,0
4.046183386847414,-3,18,11.138563641690972,-7,35,0
4.049888887364689,-1,18,11.197928379838835,-11,35,0
4.067480792824964,-1,18,11.338941749563757,-6,35,0
4.020149250960715,1,18,11.1700492389246,2,34,0
3.966661064421816,3,18,10.993379826058954,12,34,0
4.029689814365371,4,18,11.107132843357912,13,34,0
4.108332995267061,1,18,11.171821695677034,2,34,0
4.120242711297479,-3,18,11.123380781039552,-1,34,0
4.054626986542659,0,18,10.974971526158962,-8,34,0
4.065710270051223,-6,18,10.960383204979653,-9,34,0
4.175212569438829,-4,18,11.269427669584648,-15,35,0
4.229657196511321,0,18,11.328830478032584,1,35,0
4.288402966140191,1,18,11.160358417183563,10,35,0
4.278364173372808,4,18,11.142064440668074,12,35,0
4.314116363752837,6,18,11.258436836435152,9,35,0
4.421040601487394,3,18,11.328618627176043,2,35,0
4.446346815083141,-1,18,11.269090469066258,-5,35,0
4.431703961232066,-8,18,11.240355866252632,-11,35,0
4.459820624195554,-2,18,11.461867212631633,-15,35,0
4.4874937325861515,-3,18,11.520416659131737,-2,35,0
4.468780594300868,3,18,11.396209896276918,9,35,0
4.512249993074406,9,18,11.37829512712691,13,35,0
4.653987537585378,3,18,11.539930675701651,11,35,0
4.634652090502587,-4,18,11.49227566672502,-2,35,0
4.606473705558299,2,18,11.402964526823714,-2,35,0
4.630377954335907,-10,18,11.33400194106212,-10,35,0
4.66171642209176,0,18,11.526057435220421,-16,35,0
4.728805345962128,-3,18,11.554116149667184,-2,35,0
4.595650117230422,1,18,11.380140596671028,6,35,0
4.522875191733684,7,18,11.310172412478954,11,35,0
4.522875191733684,-1,18,11.41402645870422,11,35,0
4.503376511019257,-1,18,11.354311956256971,-1,35,0
4.417284233553461,1,18,11.224972160321824,-3,35,0
4.376117000264045,-1,18,11.134971935303655,-6,35,0
4.360045871318331,1,18,11.252039815073534,-13,35,0
4.366646310385124,3,18,11.252039815073532,-1,35,0
4.358944826445958,-3,18,11.099999999999998,6,35,0
4.369210454990694,2,18,11.074005598698243,11,35,0
4.431523440082431,4,18,11.199357124406738,8,35,0
4.440720662234903,-4,18,11.283616441549226,2,35,0
4.294228685107488,-1,18,11.146012739989132,-4,34,0
4.256759330758551,0,18,11.030575687605792,-6,34,0
4.248717453538186,0,18,11.047968138983748,-11,34,0
4.248717453538186,-1,18,11.187868429687578,-8,34,0
4.072542203587338,-5,15,11.052167208289967,2,34,0
3.974720115932696,2,15,10.960456194885321,9,34,0
3.9841686711282684,1,15,11.017241033943113,12,34,0
3.9761790704142075,3,15,11.08505299942224,6,34,0
3.9870289690444944,1,15,11.085052999422238,-3,34,0
3.978140269020188,-3,15,11.026168872278346,-7,34,0
3.985021957279531,-1,15,11.077562908871247,-12,34,0
4.060985102164252,-4,15,11.289216093245802,-10,34,0
4.1232996495525285,0,15,11.315847294833913,2,34,0
4.116114672843795,6,15,11.185776682912994,12,34,0
4.116114672843795,1,15,11.29594617550916,15,34,0
4.14386293209609,5,15,11.318109382754697,2,34,0
4.07450610503899,-3,15,11.271929737183424,-1,34,0
4.04776481530239,-3,15,11.141436173133156,-7,34,0
4.025717327384024,-2,15,11.135690369258656,-10,34,0
4.0853396431631,-4,15,11.365632406513948,-12,34,0
3.9954474092396746,3,15,11.27632918994475,1,33,0
3.901845717093385,0,15,11.019546270151057,11,33,0
3.8626933608558653,7,15,11.040815187294818,14,33,0
3.896100614717234,0,15,11.201232075088884,5,33,0
3.919183588453085,1,15,11.201232075088884,-1,33,0
3.7895118419131477,-5,15,11.03267873184024,-7,33,0
3.690853559815125,1,15,10.942687055746408,-8,33,0
3.840624949145644,-9,16,11.253443917308159,-17,34,0
3.9555530586758647,0,16,11.311516255568923,1,34,0
3.898717737923584,3,16,11.119784170567343,8,34,0
3.878350164696324,7,16,11.069399261025866,14,34,0
3.878350164696324,3,16,11.258774356030056,11,34,0
3.70944739819828,-3,14,11.208853643437404,-2,34,0
3.6883058441512135,1,14,11.113973186939045,-5,34,0
3.5790501533228074,-2,14,10.999563627708149,-8,34,0
3.5451939298154054,-2,14,11.161738215887347,-14,34,0
3.5958309192730407,-5,14,11.188279581776637,-2,34,0
3.562246482207542,0,14,11.02580609298023,6,34,0
3.474996402875837,5,14,10.924175026060318,10,34,0
3.523861518277924,5,14,11.082256087999411,13,34,0
3.5542087727087717,-1,14,11.12562807215844,0,34,0
3.556908770266677,-2,14,11.093078923364784,-5,34,0
3.5584266186054743,-2,14,11.048420701620662,-7,34,0
3.5654452737351043,-1,14,11.169888092545959,-13,34,0
3.5667352018337444,1,14,11.23966191662365,-3,34,0
3.5552777669262343,-2,14,11.164389817629981,6,34,0
3.5602808877952326,4,14,11.126203305710355,10,34,0
3.5602808877952326,1,14,11.22254873012365,10,34,0
3.5602808877952326,4,14,11.294972332856775,4,34,0
3.5496478698597684,-5,14,11.191711218576005,-6,34,0
3.5445168923282067,-1,14,11.107204868912788,-6,34,0
3.556683848755748,-3,14,11.155554670208025,-12,34,0
3.583294573433782,-1,14,11.357041868373999,-8,34,0
3.6135301299421867,0,14,11.332801948326814,3,34,0
3.5658939973027817,2,14,11.196874563912914,13,34,0
3.556458913020084,3,14,11.263321002262163,10,34,0
3.5841874950956436,2,14,11.31492819243675,2,34,0
3.6110940170535564,0,14,11.290704141017956,2,34,0
3.6748333295538713,2,14,11.22504342976008,-6,34,0
3.678314831549906,-4,14,11.219910873086292,-11,34,0
3.690203246435079,-4,14,11.30877535367999,-9,34,0
3.6016107507613873,2,14,11.198589196858684,-1,34,0
3.5057096285916196,1,14,10.983624174196787,11,34,0
3.5324778838656603,3,14,11.08016245368271,14,34,0
3.599777770918646,2,14,11.146945770030458,3,34,0
3.569257625893655,0,14,11.170837032201302,0,34,0
3.5463220383941447,-6,14,11.075034988658048,-8,34,0
3.5566838487557466,-1,14,11.060289327137879,-9,34,0
3.6769552621700474,-5,14,11.322119942837562,-15,34,0
3.6479583330953775,2,14,11.322119942837562,1,34,0
3.6893901935143703,0,14,11.1701208587911,8,34,0
3.6769552621700474,3,14,11.157795481187133,12,34,0
3.656719841606683,5,14,11.193730388034183,8,34,0
3.6362618167563214,0,14,11.126257232331096,0,34,0
3.57351367704113,-1,14,11.004162848667772,-5,34,0
3.581117144132539,-4,14,10.968609756938204,-7,34,0
3.6945906403822333,-5,14,11.241779218611262,-17,34,0
3.572618087621457,3,14,11.151484206149425,2,33,0
3.406112153174056,3,13,10.912378292562995,9,33,0
3.3683230248893894,4,13,10.841844861461539,11,33,0
3.463870667331562,3,13,11.03313192162588,11,33,0
3.4014702703389883,-4,13,10.982549795015727,-2,33,0
3.49565444516474,4,13,10.919706955774958,-3,33,0
3.481149235525533,-4,13,10.860957600506504,-9,33,0
3.48855270850248,-4,13,11.032841882307567,-15,33,0
3.658196276855575,-6,14,11.114387072618987,-3,33,0
3.658196276855575,2,14,10.996162967144494,6,33,0
3.5679125549822532,7,14,10.91120524965047,12,33,0
3.6658423315794697,5,14,11.065712810298304,12,33,0
3.7928353510269868,2,16,11.143356765355762,3,34,0
3.8105642626781653,-4,16,11.121169003301764,-4,34,0
3.811823710509182,-5,16,11.065260954898443,-11,34,0
3.852064381601118,-3,16,11.212564381086068,-14,34,0
3.9063537986209096,-1,16,11.368377192897851,-5,34,0
3.9263723715409373,2,16,11.279077976501446,7,34,0
3.9063537986209096,4,16,11.211351390443527,10,34,0
3.943805269026349,3,16,11.339153407552082,13,34,0
3.9731096133884867,0,16,11.429803147911166,3,34,0
3.9059441880293173,-1,16,11.429803147911166,0,34,0
3.9059441880293178,-2,16,11.381405888553488,-10,34,0
3.947100201413692,-5,16,11.44323380867489,-14,34,0
4.168261028294654,-6,18,11.713240371477058,-11,36,0
4.188985557387374,5,18,11.635480222148118,6,36,0
4.155189526363389,4,18,11.471425369150948,13,36,0
4.146516610361038,1,18,11.540606569847183,10,36,0
4.143669871020132,0,18,11.556833476346364,1,36,0
4.1231541324573335,1,18,11.556833476346366,1,36,0
4.102145779954683,0,18,11.418248552207995,-8,36,0
4.036087214122115,-2,18,11.402526035927304,-9,36,0
4.038613623509927,-1,18,11.552038781098343,-8,36,0
4.027952333382309,0,18,11.574471910199618,0,36,0
4.059556626036887,-2,18,11.42560282873512,10,36,0
4.065267518872526,2,18,11.478048614638288,12,36,0
4.065267518872525,5,18,11.47804861463829,3,36,0
4.006245124802026,-1,18,11.432165149261975,1,36,0
3.9454277334656607,0,18,11.287940467596384,-6,36,0
3.959797974644665,-5,18,11.257441982972864,-9,36,0
3.9597979746446645,1,18,11.434701570220362,-12,36,0
3.884378972242538,-2,18,11.351546150194695,0,36,0
3.8371343474004163,5,18,11.121312872138791,11,36,0
3.7821158099666903,-2,18,11.129079027484707,13,36,0
3.9108055436188613,8,18,11.320229679648731,6,36,0
4.014174884082654,0,18,11.410188429644798,0,36,0
3.9931942101530717,-6,18,11.361337949379026,-7,36,0
4.0014497372827265,-4,18,11.332096010888717,-9,36,0
4.105800774514028,-4,18,11.58069082568048,-16,36,0
4.140579669563187,-1,18,11.550861439736863,0,36,0
4.185164273956283,2,18,11.416899754311585,7,36,0
4.210700654285462,9,18,11.377890841452118,12,36,0
4.19733248623456,-1,18,11.487889275232416,10,36,0
4.1694603967420045,3,18,11.43973775923207,1,36,0
4.156392666724358,-5,18,11.348726800835417,-5,36,0
4.104095515457701,4,18,11.268380540255109,-5,36,0
4.094679474635345,-3,18,11.390241437300618,-15,36,0
4.089449840748754,-2,18,11.36705766678431,-1,36,0
3.962019686977842,-2,18,11.170747513036,5,36,0
3.8817006582167064,4,18,11.062802538235957,9,36,0
3.878143885933063,-1,18,11.18679578789208,11,36,0
3.7768240626219263,-1,18,11.165016793538648,0,36,0
3.6391757308489523,5,17,11.010340594186902,-3,35,0
3.6011664776846954,-2,17,10.894934602832636,-5,35,0
3.6180105030251086,-5,17,11.045016975994198,-17,35,0
3.6180105030251086,-1,17,11.181699334179937,-5,35,0
3.6180105030251086,-1,17,11.068947556113907,4,35,0
3.606882310250781,3,17,10.963284179478338,13,35,0
3.714242856895603,8,17,11.071332349812286,12,35,0
3.8483762809787727,2,18,11.170604280879347,5,36,0
3.8483762809787727,-4,18,11.197874798371343,0,36,0
3.8680227507086875,0,18,11.042191811411357,-9,36,0
3.89815340898739,-8,18,11.063471426274846,-14,36,0
3.89815340898739,0,18,11.190728305164056,-8,36,0
3.669114334549959,1,16,11.009105322413806,1,34,0
3.6276714294434114,0,16,10.838523884736336,11,34,0
3.6650238744106414,-1,16,10.880367640847437,10,34,0
3.693237062523878,7,16,10.880367640847435,2,34,0
3.69697173373019,-2,16,10.899192630649297,2,34,0
3.69697173373019,0,16,10.804887782850868,-7,34,0
3.701675296402966,-3,16,10.820277260772942,-9,34,0
3.7599999999999993,-3,16,11.048637925101897,-12,34,0
3.8366652186501744,-1,16,11.101801655587257,1,34,0
3.8366652186501744,4,16,10.95014155159649,11,34,0
3.806573262134858,3,16,11.009105322413806,14,34,0
3.898769036503699,5,16,11.126203305710352,5,34,0
3.898769036503699,-3,16,11.1682585929947,-1,34,0
3.9539347490822343,2,16,11.09827013547607,-5,34,0
3.942790889712516,-5,16,11.067520047418034,-8,34,0
3.981758405528896,-5,16,11.287798722514498,-16,34,0
4.031327324839798,0,16,11.314928192436751,0,34,0
4.014971979976946,2,16,11.159731179558042,9,34,0
4.019004851950291,1,16,11.152829237462573,10,34,0
4.061329831471462,6,16,11.230316113093167,10,34,0
3.9346664407545404,-3,16,11.1384738631466,-2,34,0
3.8249705881222122,2,16,10.993616329488669,-3,34,0
3.8249705881222122,-2,16,10.938025415951454,-6,34,0
3.8137121024010177,-3,16,11.133894197449518,-17,34,0
3.7138120577110505,-1,16,11.052167208289967,1,34,0
3.568529108750552,0,14,10.851156620379232,6,34,0
3.469639750752232,3,14,10.760966499343818,9,34,0
3.454909550190859,2,14,10.93442270995593,13,34,0
3.454909550190859,0,14,10.95673308974897,-1,34,0
3.4283523739545783,2,14,10.878032910411699,-4,34,0
3.438837012712294,-6,14,10.821903714226996,-8,34,0
3.389926252885157,1,14,10.966421476489037,-14,34,0
3.4260180968582166,-3,14,11.095242223583949,-4,34,0
3.439825576973342,6,14,11.002835998050683,9,34,0
3.431384560203069,0,14,10.947894774795744,9,34,0
3.477067730142741,2,14,11.076750426004912,11,34,0
3.4770677301427404,-4,14,11.0989909451265,1,34,0
3.477987924073343,1,14,11.0989909451265,-1,34,0
3.457397865447364,2,14,11.059186226843273,-6,34,0
3.4722327110952693,0,14,11.089183919477573,-13,34,0
3.5833503875563135,-10,15,11.226753760548949,-11,34,0
3.607547643483036,2,15,11.139138207240272,3,34,0
3.564491548594275,2,15,10.965856099730656,13,34,0
3.566286584109584,5,15,11.069977416417794,13,34,0
3.4641593496835537,-1,15,11.111957523316942,2,34,0
3.2682717145304796,0,13,11.013173929435599,-1,34,0
3.2162711328493425,0,13,10.797055154068632,-8,32,0
3.1953090617340916,-5,13,10.808441145697191,-12,32,0
3.163605537989842,2,13,10.93963436317686,-6,32,0
3.12409987036266,1,13,10.889646458907654,1,32,0
3.1105626500683137,-1,13,10.716809226630845,11,32,0
3.0883005035132176,2,13,10.783339000513708,11,32,0
3.0594117081556726,2,13,10.812381791261352,0,32,0
3.0302475146429853,-1,13,10.829589096544709,1,32,0
3.0268135059828185,-2,13,10.727460090813668,-7,32,0
3.0228463407854513,0,13,10.744970916666084,-9,32,0
3.0371697351317053,-2,13,10.981803130633876,-11,32,0
2.988310559496789,0,13,10.952424389147819,1,32,0
2.8864511081949753,1,13,10.744970916666086,11,32,0
3.0027320892813605,8,13,10.797481187758557,14,32,0
3.1585439683499748,1,14,10.928055636754417,6,33,0
3.0724582991474434,-4,14,10.903742476782915,-2,33,0
3.056075915287448,-1,14,10.783023694678596,-7,33,0
3.0199337741083014,-6,14,10.726863474473792,-8,33,0
3.2109811584623147,-4,15,11.014971629559472,-16,33,0
3.185027472408989,4,15,11.014971629559472,2,33,0
3.1243559336285616,2,15,10.831897340724755,9,33,0
3.1019993552546063,1,15,10.790755302572661,8,33,0
3.1241638881467138,4,15,10.894934602832636,10,33,0
3.124163888146714,1,15,10.871982339941507,1,33,0
3.119999999999999,-4,15,10.81926060320205,-4,33,0
3.1199999999999988,3,15,10.75786224117041,-8,33,0
3.161075766254266,-7,15,10.976502175101137,-16,33,0
3.253367486159532,-2,15,11.003635762783135,0,33,0
3.2326459750489236,5,15,10.88896689314464,8,33,0
3.2189439261969137,-1,15,10.836253965277857,7,33,0
3.2513996985913627,5,15,10.994998863119543,14,33,0
3.240740656084654,-2,15,10.94716401631034,-1,33,0
3.2251511592481994,-1,15,10.849073693177681,-4,33,0
3.174901573277507,-2,15,10.770719567419809,-10,33,0
3.1880401503117857,-1,15,11.01397294349319,-15,33,0
3.19474568627927,1,15,11.116204388189344,0,33,0
3.1598101208775176,3,15,10.912836478203088,10,33,0
3.2015621187164256,3,15,10.88156238781913,11,33,0
3.3466401061363036,3,15,11.042264260558156,9,33,0
3.4467956133197086,0,15,11.144523318652976,3,34,0
3.4951967040497167,-3,15,11.100792764483085,-5,34,0
3.491933561796386,-4,15,10.981092841789472,-7,34,0
3.4641593496835545,0,15,11.042535940625232,-15,34,0
3.457224320173626,-3,15,11.243913909311116,-6,34,0
3.3645207682521447,-1,15,11.09154633042661,5,34,0
3.3046028505706984,2,15,10.903595737186887,12,34,0
3.2921725349683606,4,15,10.981001775794411,9,34,0
3.290227955628608,-4,15,10.961405019430675,1,34,0
3.290227955628608,3,15,10.878621236167753,-1,34,0
3.2863962025294495,-1,15,10.740968298994277,-7,34,0
3.3120990323358375,3,15,10.747669514829715,-8,34,0
3.291443452347312,-6,15,10.971617929913528,-12,34,0
3.3526705773159375,-2,15,11.050791826833043,1,34,0
3.3745518220943067,2,15,10.94168177201293,11,34,0
3.3745518220943067,1,15,11.010195275289172,14,34,0
3.3882738968389177,4,15,11.028617320407852,2,34,0
3.3882738968389177,0,15,11.067068265805538,1,34,0
3.3882738968389177,-1,15,10.993179703798168,-6,34,0
3.3990586932266984,1,15,10.984880518239605,-8,34,0
3.421344764854897,-5,15,11.166897510051747,-13,34,0
3.3990586932266984,2,15,11.088660874965921,2,34,0
3.3733662712489454,1,15,10.888599542640916,10,34,0
3.4073450074801626,4,15,10.938391106556757,12,34,0
3.349089428486496,0,15,11.046737074810824,6,34,0
3.349089428486496,3,15,11.01978221200401,0,34,0
3.395585369269927,-2,15,10.936562531252678,-5,34,0
3.3879787484575514,-6,15,10.897706180660222,-10,34,0
3.342154993413679,0,15,11.107907093597783,-15,34,0
3.151444113418482,-1,13,11.023048580134263,1,34,0
3.1276828483719363,-1,13,10.858379252908788,7,34,0
3.112876483254678,4,13,10.826338254460742,10,34,0
3.1087618113969415,0,13,10.965053579440458,10,34,0
3.094769781421551,1,13,10.96505357944046,-1,34,0
3.0499836065133183,-2,13,10.875219538013937,-4,34,0
3.1071530377501513,-4,13,10.811401389274195,-9,34,0
3.1622776601683795,-1,13,11.05305387664423,-15,34,0
3.3096223349500153,-3,15,11.14263882570013,-2,35,0
3.20306103594671,7,15,10.995799197875524,10,35,0
3.1997499902336113,1,15,10.948260135747597,9,35,0
3.189043743820393,1,15,11.090536506409416,12,35,0
3.27022934975515,5,15,11.14227983852497,3,35,0
3.4953683639925557,3,17,11.165321311990981,-2,35,0
3.5000000000000013,-10,17,11.112443475671768,-10,35,0
3.5159067109353175,-2,17,11.208728741476438,-14,35,0
3.5372870960667004,-1,17,11.180339887498949,-5,35,0
3.5528017113258645,1,17,11.034926370393237,5,35,0
3.55983145668443,5,17,10.997163270589375,12,35,0
3.55983145668443,2,17,11.116402295707008,11,35,0
3.4698703145794942,0,17,11.140933533595826,2,35,0
3.356426671327709,-1,17,11.017368106766696,-3,34,0
3.3216863187242702,-1,17,10.917673744896392,-7,34,0
3.349567136213276,-5,17,10.950598157178446,-12,34,0
3.4225136961011557,-2,17,11.226201494717614,-13,36,0
3.49862830263519,-1,17,11.255860695655397,3,36,0
3.46554469023269,4,17,11.167882520872073,12,36,0
3.454909550190859,2,17,11.234162185049671,14,36,0
3.4899283660270175,4,17,11.315900317694568,5,36,0
3.5227829907617063,0,17,11.379086079294769,0,36,0
3.5306656596171786,-2,17,11.337089573607509,-7,36,0
3.530665659617179,-2,17,11.34195750300626,-10,36,0
3.5774851502137652,-5,17,11.49659079901516,-11,36,0
3.5636498144458595,3,17,11.389907813498755,1,36,0
3.5184655746504054,-1,17,11.160931860736362,10,36,0
3.4951967040497167,2,17,11.179785328887133,11,36,0
3.5252801307130204,5,17,11.274466727965452,6,36,0
3.61004155100741,2,17,11.35957745693034,1,36,0
3.603109767964333,-5,17,11.274111938418917,-9,36,0
3.6055512754639887,-2,17,11.257068890257358,-8,36,0
3.6682966074187626,-4,17,11.465094853510806,-13,36,0
3.7761885546142966,-2,17,11.492884755360596,-1,36,0
3.8379682124790966,2,17,11.382723751369882,9,36,0
3.8379682124790966,5,17,11.381124724736129,11,36,0
3.8905526599700466,6,17,11.475190630224843,10,36,0
3.91387276236722,-1,17,11.451270671851224,0,36,0
3.880257723399311,1,17,11.348021854050156,-4,36,0
3.814131618075077,-7,17,11.269871339105872,-9,36,0
3.8329623008842653,-2,17,11.451270671851224,-15,36,0
3.983767061463306,-5,17,11.478675881825396,-2,36,0
4.030334973671544,3,17,11.360352107219212,8,36,0
4.014423993551256,4,17,11.314150432091663,10,36,0
4.056796765922591,5,17,11.466542634988105,12,36,0
4.258450422395453,5,17,11.512706024215156,1,36,0
4.2708781298463645,-6,17,11.47700309314239,-5,36,0
4.273827324541788,-2,17,11.434841494310275,-7,36,0
4.23985848820453,-2,17,11.61509362855074,-17,36,0
4.190465367951393,-1,17,11.56200674623571,0,36,0
4.073524272666114,-2,17,11.326076107814215,6,36,0
4.073524272666114,3,17,11.259289498010078,9,36,0
4.1102797958289905,5,17,11.410451349530394,13,36,0
4.219194235870162,3,17,11.455723460349418,1,36,0
4.282242403227542,1,17,11.385060386313281,-2,35,0
4.107018383206972,-6,17,11.24875104178237,-8,35,0
4.107018383206972,-3,17,11.359947182975807,-16,35,0
4.1248515124789655,-3,17,11.501460776788312,-5,35,0
4.1248515124789655,0,17,11.428455713699908,4,35,0
4.164804917400095,-1,17,11.341763531303235,9,35,0
4.158894083767944,4,17,11.387378978500715,11,35,0
4.120631019637648,1,17,11.366688172022666,4,35,0
4.091014544095389,2,17,11.279645384496805,-1,35,0
4.0784310708898825,0,17,11.173611770595937,-7,35,0
4.067628301602792,-2,17,11.202785367934172,-11,35,0
4.067628301602792,-3,17,11.38843272799203,-9,35,0
4.04598566482878,-1,17,11.15937274222884,4,32,0
3.9597979746446663,3,17,10.885145841926054,12,31,0
3.971145930332955,4,17,10.992433761456105,13,31,0
3.991791577725473,0,17,11.044437513970546,-1,31,0
3.991791577725473,1,17,11.021724003076832,1,31,0
3.963029144480269,-2,17,10.888526071052961,-7,31,0
3.9568169025114117,-3,17,10.858894971404778,-8,31,0
3.97994974842648,-2,17,10.94941094305991,-8,31,0
3.9173460403696807,4,17,10.899981651360708,-2,31,0
3.905688159594928,-1,17,10.728075316663285,12,31,0
3.879639158478531,0,17,10.774952436089912,9,31,0
3.8771639119335646,1,17,10.884870233493828,5,31,0
3.8603626772623296,2,17,10.884870233493828,0,31,0
3.7807935674934727,-1,17,10.737765130603291,-7,31,0
3.804418483815889,-5,17,10.717014509647731,-8,31,0
3.8444245343093955,-1,17,10.910545357588683,-13,31,0
3.8207852596030607,0,17,10.882812136575732,0,31,0
3.7568071550187385,-1,17,10.665251989521858,8,31,0
3.698702475193156,3,17,10.610353434264097,9,31,0
3.7202150475476534,5,17,10.75786224117041,11,31,0
3.6299311288232463,-4,17,10.694596766591996,-3,31,0
3.56364981444586,2,17,10.570695341367092,-4,31,0
3.4620225302559793,0,17,10.492587860008603,-6,31,0
3.459768778401237,-1,17,10.669882848466518,-14,31,0
3.445809048685082,-2,17,10.643476875532732,0,31,0
3.3642829845302855,-4,15,10.469078278435022,4,31,0
3.364282984530284,1,15,10.39546054775833,9,31,0
3.4082840257232094,9,15,10.532331175955303,13,31,0
3.3642829845302846,-5,15,10.486963335494217,-1,31,0
3.1067024318399086,1,14,10.345704422609415,-4,31,0
3.074085229787882,-1,14,10.264131721680116,-7,31,0
3.0699185656951866,0,14,10.436646971130143,-14,31,0
3.207553584899245,-6,15,10.527601816178274,-4,32,0
3.2388269481403293,3,15,10.476640682967036,5,32,0
3.206243908376278,5,15,10.413241570231623,15,32,0
3.3678479775666816,6,15,10.633607102013881,13,33,0
3.5609549281056596,2,16,10.848797168350048,5,38,0
3.56095492810566,-2,16,10.875366660485522,-5,38,0
3.370697257245154,-6,16,10.77582479441829,-9,38,0
3.356247905027278,-2,16,10.816727786165277,-14,38,0
3.363093813737582,-1,16,10.946944779252336,-9,38,0
3.3443085982008296,-1,16,10.816727786165277,5,38,0
3.304784410517576,2,16,10.677546534667973,8,38,0
3.2372828112477285,0,16,10.708202463532334,11,38,0
3.315659813672083,6,16,10.842158456691177,7,38,0
3.3645207682521443,-1,16,10.862854136920001,-2,38,0
3.355532744587662,-3,16,10.795721374692844,-7,38,0
3.346401051876479,0,16,10.812011838691259,-10,38,0
3.3719430600174722,-4,16,10.932977636490438,-9,38,0
3.3919905660246172,-1,16,10.847967551573888,0,38,0
3.346401051876479,4,16,10.698336319260113,11,38,0
3.3464010518764793,-1,16,10.803703068855604,14,38,0
3.3674322561857144,5,16,10.783116432645992,0,38,0
3.388214869219483,0,16,10.803703068855604,1,38,0
3.367432256185714,-1,16,10.697308072594712,-7,38,0
3.3583329197683787,-2,16,10.685036265731624,-8,38,0
3.3669570831835682,-3,16,10.858434509633511,-11,38,0
3.4132096331752013,-3,16,10.952625256074455,-1,38,0
3.50747772623006,-1,16,10.832192760470983,9,38,0
3.528455752875472,3,16,10.864326946479471,12,38,0
3.5429366350529032,5,16,10.936836837038395,6,38,0
3.5429366350529032,-1,16,10.874281585465774,-2,38,0
3.5429366350529032,2,16,10.751669637781848,-4,38,0
3.558426618605474,0,16,10.71763033510673,-7,38,0
3.600222215363935,-8,16,10.942047340420348,-15,38,0
3.5822339398760636,2,16,10.916336381772046,2,38,0
3.546040044895151,4,16,10.73789551076001,9,38,0
3.4811492355255336,0,16,10.70978991390587,9,38,0
3.53977400408557,4,16,10.911571839107324,11,38,0
3.53977400408557,-2,16,10.911571839107324,-2,38,0
3.5777087639996634,1,16,10.894567453552252,-4,38,0
3.58491283018151,-2,16,10.866480571003658,-7,38,0
3.611149401506393,-5,16,11.071332349812286,-17,38,0
3.786766430610688,-5,17,11.15399480007051,-2,38,0
3.8691084244306193,2,17,11.068893350285746,7,38,0
3.778888725538237,5,17,10.97890704942892,10,38,0
3.7506799383578446,5,17,11.149457385899998,14,38,0
4.012181451529828,7,19,11.219786094217662,1,38,0
4.114559514698993,-4,19,11.21978609421766,-4,38,0
4.119271780302921,-8,19,11.18679578789208,-8,38,0
4.161730409336961,-3,19,11.36557961566413,-17,38,0
4.285043757069466,-3,19,11.477787243192823,-4,38,0
4.184542985799045,4,19,11.298920302400576,7,38,0
4.142897536748888,2,19,11.147394314367821,9,38,0
4.148059787418691,3,19,11.227199116431489,12,38,0
4.041979712962448,-1,19,11.137486251394431,1,38,0
3.8587562763149466,-3,19,10.803036610138834,-6,33,0
3.7536648758246907,-1,19,10.59245014149229,-6,33,0
3.7595744440029386,1,19,10.70343869978242,-12,33,0
3.8186908751560384,-3,19,10.997617923896064,-7,35,0
3.8304568918080766,2,19,10.893686244793358,7,35,0
3.8186908751560384,1,19,10.774488386925851,12,35,0
3.8298302834459923,4,19,10.881709424534366,12,35,0
3.9240795098978323,4,19,11.133732527773423,7,38,0
3.9521639642099884,0,19,11.216790984947522,-1,38,0
3.92127530275547,-4,19,11.131864174521715,-10,38,0
3.9183670068027054,-2,19,11.138779107245101,-13,38,0
3.9531759384069938,-4,19,11.310543753507167,-9,38,0
3.96988664825584,0,19,11.335325315137633,0,38,0
3.9698866482558395,0,19,11.198999955353159,9,38,0
3.9713473784094995,3,19,11.23857642230545,13,38,0
4.013178291578884,5,19,11.305591536934278,7,38,0
4.036087214122112,1,19,11.397350569320922,1,38,0
4.0181587823280465,-2,19,11.3017697729161,-9,38,0
3.993444628387881,-3,19,11.285052060136895,-9,38,0
4.025121116190171,-4,19,11.442447290680438,-11,38,0
4.025121116190171,2,19,11.466908912169837,-1,38,0
3.9698866482558395,1,19,11.290774995543927,11,38,0
3.8824734384152575,1,19,11.319010557464818,12,38,0
3.900820426525682,4,19,11.435051377234823,5,38,0
3.8933789951660267,-3,19,11.415147830843011,-2,38,0
3.900820426525682,1,19,11.370857487454495,-4,38,0
3.8882386758016825,-4,19,11.342398335449166,-9,38,0
3.8851512197081877,-1,19,11.558546621439913,-14,38,0
3.8253888691216726,2,19,11.50784080529445,2,38,0
3.8130827423490317,3,19,11.3718951806636,8,38,0
3.8130827423490317,-3,19,11.359507031557312,9,38,0
3.82099463490856,3,19,11.49262372132665,10,38,0
3.7568071550187385,-1,19,11.422504103741877,-1,38,0
3.742993454442579,1,19,11.317172791823936,-5,38,0
3.7056173574723017,-4,19,11.243291333057236,-7,38,0
3.751053185440054,-3,19,11.452667811475193,-16,38,0
3.7677048716692263,1,19,11.50632869337566,-1,38,0
3.627891949879434,1,18,11.347669364235111,7,38,0
3.5440090293338695,1,18,11.265948695072245,10,38,0
3.5460400448951526,3,18,11.37613291061598,11,38,0
3.572170208710663,4,18,11.376132910615977,3,38,0
3.405877273185282,3,15,11.32651755836718,-1,38,0
3.255088324454501,-10,15,11.219696965604731,-11,38,0
3.2933873139975507,-2,15,11.349008767288884,-15,38,0
3.383784863137726,-3,15,11.487819636467137,-6,38,0
3.2933873139975507,3,15,11.33682495234005,7,38,0
3.274141108748979,3,15,11.239021309704862,11,38,0
3.2787802610117054,2,15,11.297238600649276,9,38,0
3.319277029715958,3,15,11.336683818471784,4,38,0
3.369332278063413,0,15,11.403227613268097,2,38,0
3.4388370127122934,1,15,11.38421714480183,-12,38,0
3.414147038427022,-5,15,11.436852713924404,-10,38,0
3.4481879299133316,-4,15,11.511055555421494,-8,38,0
3.4024109099284296,1,15,11.311940593903419,3,37,0
3.387978748457552,1,15,11.166897510051747,11,37,0
3.3763886032268267,2,15,11.236173725962054,11,37,0
3.4374990909089713,5,15,11.27796080858592,4,37,0
3.4056423769973265,0,15,11.141561829474357,0,36,0
3.2975142152839907,-5,15,10.894494022211404,-9,34,0
3.2841437240169626,0,15,10.867584828286367,-9,34,0
3.308715762950937,-3,15,11.007724560507498,-9,34,0
3.334666400106614,-2,15,11.007724560507498,-1,34,0
3.3147548928993222,2,15,10.824121211442526,11,34,0
3.2695565448543618,3,15,10.839723243699533,11,34,0
3.3166247903554,4,15,10.886615635724446,3,34,0
3.2670475968372417,-4,15,10.798073902321656,0,34,0
3.18973353119034,1,15,10.599641503371705,-6,33,0
3.18973353119034,2,15,10.5642605041716,-6,33,0
3.234563339927043,-7,15,10.704933442109764,-11,33,0
3.214280634916622,1,15,10.704933442109764,-1,33,0
3.2484457822164723,-1,15,10.535957479033408,8,33,0
3.314272167459998,-1,15,10.541423053838605,10,33,0
3.315177219998953,4,15,10.558049062208417,5,33,0
3.274141108748979,3,15,10.472077157851732,0,33,0
3.274141108748979,-1,15,10.386837824862772,-3,33,0
3.2917472563974304,2,15,10.332473082471592,-7,33,0
3.3045423283716597,-6,15,10.583477689304212,-16,33,0
3.3045423283716597,0,15,10.555832510986518,2,33,0
3.395585369269929,-3,15,10.454262288655285,6,33,0
3.3837257572090573,7,15,10.434347128594105,11,33,0
3.418537699075439,2,15,10.596395613603711,11,33,0
3.458323293158115,1,15,10.596395613603713,0,33,0
3.5077628198040975,0,15,10.553122760586083,-3,33,0
3.4971988791031006,-3,15,10.505541394902025,-8,33,0
3.4971988791031006,-3,15,10.672131933217466,-16,33,0
3.473384516577454,-2,15,10.672131933217466,-2,33,0
3.455083211733112,1,15,10.487020549231323,7,33,0
3.434006406517027,3,15,10.402384342063122,9,33,0
3.4546200948874253,3,15,10.598113039593418,14,33,0
3.4999999999999987,1,15,10.669601679537996,0,33,0
3.4525932282850786,-1,15,10.542883855947576,-6,33,0
3.256009827994996,-2,12,10.373523991392704,-7,33,0
3.256009827994996,-3,12,10.490548126766306,-13,33,0
3.256009827994996,-2,12,10.568557138985435,-4,33,0
3.157784033147296,0,11,10.394306133648362,3,31,0
3.1221146679774585,2,11,10.268885041717041,12,31,0
3.1511902513177446,5,11,10.393863574244179,12,31,0
3.177483280837211,0,11,10.49639938264546,2,31,0
3.177483280837211,1,11,10.435113799091988,-4,31,0
3.1241638881467133,-4,11,10.241503795829985,-7,31,0
3.0368404633763677,0,11,10.304251549724514,-11,31,0
3.046571843892739,-2,11,10.507159463908406,-8,31,0
3.0156922919953213,4,11,10.385682452299418,6,31,0
2.9883105594967856,-2,11,10.237655981717692,10,31,0
2.9796644106341903,1,11,10.321337122679404,10,31,0
2.9796644106341903,-1,11,10.361100327667904,2,31,0
2.906888370749725,2,11,10.313583276436953,0,31,0
2.8496315551312925,1,10,10.178722906141026,-5,31,0
2.8496315551312925,-3,10,10.178192373894296,-11,31,0
2.8496315551312925,0,10,10.332473082471592,-9,31,0
2.8329489935401253,-2,10,10.30784167515198,1,31,0
2.749545416973504,3,10,10.111795092860614,10,31,0
2.719117503897173,0,10,10.205508316590603,13,31,0
2.722131517763238,0,10,10.300213590018412,2,31,0
2.6788803631368094,1,10,10.343384359096396,0,31,0
2.7102767386375892,1,10,10.280077820717118,-6,31,0
2.711752201068525,-4,10,10.269586164982503,-9,31,0
2.770126350908924,-4,10,10.499314263322155,-13,31,0
2.801785145224378,0,10,10.578166192681984,0,31,0
2.7742386342922996,4,10,10.446453943803132,9,31,0
2.7202941017470885,0,10,10.456098698845569,13,31,0
2.63825700036975,3,10,10.58113415471139,6,31,0
2.645751311064592,0,10,10.641127759781854,0,31,0
2.63825700036975,-3,10,10.598131910860515,-6,31,0
2.6520935126801226,-1,10,10.564563407921785,-8,31,0
2.6788803631368094,-2,10,10.820147873296373,-15,31,0
2.7367864366808,-1,10,10.763066477542539,2,31,0
2.8753434577455255,-2,11,10.634302986091754,6,31,0
2.7556487439439725,6,11,10.568935613390785,11,31,0
2.8106227068036027,5,11,10.75174404457249,12,31,0
2.866984478506992,1,12,10.75174404457249,-1,31,0
2.8248185782453374,-3,12,10.669283012461523,-4,31,0
2.781438476759823,0,12,10.581663385309513,-6,31,0
2.7902688042552457,-4,12,10.726117657381913,-16,31,0
2.790268804255246,0,12,10.779907235222389,-3,31,0
2.734666341621953,2,12,10.607544484940895,8,31,0
2.7017771928861953,0,12,10.540758985955422,10,31,0
2.733788579974683,3,12,10.677846224777728,10,31,0
2.701777192886195,-3,12,10.629186234138524,0,31,0
2.6454489222058317,1,12,10.503808832990062,-4,31,0
2.6125849268492694,-2,12,10.4468942753337,-11,31,0
2.6630058204968314,-3,12,10.618643981224722,-11,31,0
2.924106701199529,-5,14,10.81214132353069,-5,33,0
2.9024816967553813,6,14,10.759256479887444,5,33,0
2.8568514137070555,2,14,10.617268952042233,15,33,0
2.977515743031429,7,15,10.758605857637875,11,33,0
3.001666203960726,-2,15,10.803721581010869,1,33,0
2.9842251925751193,-2,15,10.828924230965878,1,33,0
2.9842251925751184,2,15,10.767153755751794,-10,33,0
3.033150177620621,-8,15,10.816820235170775,-12,33,0
3.079220680626837,0,15,11.097314990573171,-12,34,0
3.1140969798643066,0,15,11.068676524318523,4,34,0
3.1378973851928307,0,15,10.980418935541577,12,34,0
3.1382160537477333,3,15,11.05990958371722,13,34,0
3.150618986802435,3,15,11.140915581764364,4,34,0
3.3181320046074125,5,16,11.23501668890616,2,35,0
3.3349062955351534,-4,16,11.169601604354563,-8,35,0
3.3181320046074125,-1,16,11.134828242950135,-8,35,0
3.319277029715958,-3,16,11.28049644297626,-13,35,0
3.4479559161915043,-6,16,11.305237724170157,-1,35,0
3.477067730142742,3,16,11.176332135365344,11,35,0
3.5279455778115394,8,16,11.26277052949229,14,35,0
3.67390800102561,3,16,11.400859616713115,6,36,0
3.6988646906855087,-4,16,11.422714213355773,-3,36,0
3.684779504936489,-3,16,11.327559313462015,-7,36,0
3.6545314337134944,0,16,11.29475984693787,-7,36,0
3.7105794695707566,-5,16,11.477299333902554,-14,36,0
3.8481683954837522,-4,16,11.505198824879129,-2,36,0
3.8118237105091834,6,16,11.342733356647333,9,36,0
3.8118237105091834,2,16,11.30665290879666,10,36,0
3.842343035180488,4,16,11.424535001478178,11,36,0
4.149987951789738,8,20,11.521874847436942,3,36,0
4.230177301248732,-5,20,11.502017214384614,-5,36,0
4.268067478379414,-2,20,11.478675881825394,-8,36,0
4.27943921559823,-7,20,11.642267820317482,-17,36,0
4.387983591582814,-5,20,11.614284308557286,-2,36,0
4.368111720182988,4,20,11.491301057756692,7,36,0
4.256759330758553,4,20,11.421471008587293,10,36,0
4.274763151333649,3,20,11.56103801568008,12,36,0
4.320370354495088,3,20,11.47965156265642,-3,36,0
4.272750870341027,-4,20,11.389486379990977,-2,36,0
4.272750870341027,0,20,11.322543883774529,-6,36,0
4.2731253199502595,-4,20,11.481480740740718,-16,36,0
4.375568534487834,-5,20,11.643384387711333,-5,36,0
4.375568534487834,5,20,11.530411961417514,8,36,0
4.394041419923123,-1,20,11.478675881825396,11,36,0
4.404588516535907,5,20,11.581865134769957,11,36,0
4.441846462902561,3,20,11.706135143590306,6,37,0
4.4787944806610644,-1,20,11.706135143590306,-5,37,0
4.476427146732092,-4,20,11.665333257134149,-8,37,0
4.476427146732092,-1,20,11.74224850699388,-14,37,0
4.4962651167385586,-4,20,11.74224850699388,-4,37,0
4.333174356058154,2,20,11.536879994175198,3,37,0
4.321296101865734,1,20,11.363168572189712,10,37,0
4.320370354495088,3,20,11.444142606591376,11,37,0
4.258685243123751,2,20,11.538128097746185,6,37,0
4.258685243123751,1,20,11.517360808796436,-4,37,0
4.252058325093859,-5,20,11.36177802986839,-9,37,0
4.233249342998825,-2,20,11.407734218502812,-11,37,0
4.308131845707601,-4,20,11.732007500849974,-13,38,0
4.352286755258663,1,20,11.66766471921438,3,38,0
4.337234141708285,3,20,11.478606187164015,12,38,0
4.306460263371766,4,20,11.517013501772064,14,38,0
4.342764096747602,3,20,11.550653661157016,3,38,0
4.354308211415448,-1,20,11.550653661157016,2,38,0
4.2485291572496,-1,20,11.389486379990977,-7,38,0
4.2362247343595945,0,20,11.361056288919618,-10,38,0
4.259389627634455,-6,20,11.577374486471447,-12,38,0
4.290687590584989,0,20,11.627708286674547,0,38,0
4.216918306061902,0,20,11.459999999999999,11,38,0
4.193518808828692,6,20,11.535007585606524,15,38,0
4.215447781671597,3,20,11.59420544927508,3,38,0
4.116746288028937,-2,20,11.54268599590234,1,38,0
4.156970050409309,2,20,11.46647286657933,-5,38,0
4.156970050409309,-5,20,11.435051377234823,-10,38,0
4.191849233930057,-4,20,11.62254705303446,-14,38,0
4.171330722922841,0,20,11.648450540737167,-1,38,0
3.9991999199839947,1,19,11.44650164897555,9,38,0
3.9874302501736643,5,19,11.414885019131814,12,38,0
4.0062451248020245,1,19,11.55605469007481,8,38,0
4.071166908884972,3,19,11.556054690074808,0,38,0
3.7761885546142966,-4,14,11.390943771259693,-5,38,0
3.73930474821189,-7,14,11.284254516803491,-9,38,0
3.8063630935579433,-2,14,11.546583910403976,-17,38,0
3.8063630935579433,4,14,11.596361498332138,2,38,0
3.651027252705738,3,13,11.424815096972027,9,38,0
3.621104803785716,-2,13,11.360563366312428,8,38,0
3.621104803785716,2,13,11.468147191242359,10,38,0
3.6057731487158207,2,13,11.42600542621961,0,38,0
3.524826236851966,1,13,11.409206808538446,-2,38,0
3.5143135887396255,-2,13,11.350436114969327,-9,38,0
3.5051961428713216,-3,13,11.530828244319663,-15,38,0
3.6177893802707746,-5,13,11.66747616239262,-4,38,0
3.498571136907179,7,13,11.421453497694595,11,38,0
3.5227829907617094,3,13,11.331372379372235,11,38,0
3.551675660867699,1,13,11.504503466034508,11,38,0
3.551675660867699,-2,13,11.593722439320342,1,38,0
3.5252801307130195,2,13,11.430643026531794,-5,37,0
3.474535940237198,-4,13,11.306086856202725,-8,37,0
3.475859605910458,-1,13,11.409206808538444,-14,37,0
3.6832594261061757,-8,15,11.658902178164118,-8,37,0
3.6832594261061757,4,15,11.658902178164116,6,37,0
3.6720021786485915,3,15,11.576113337385742,10,37,0
3.6660605559646706,1,15,11.624112869376312,11,37,0
3.678260458423249,-2,15,11.624112869376312,3,37,0
3.678260458423249,6,15,11.503477735015617,1,36,0
3.678260458423249,1,15,11.40331530740074,-5,36,0
3.6837480912787726,-6,15,11.400982413809784,-10,36,0
3.672819080760719,0,15,11.531261856362471,-11,36,0
3.5530831681794326,2,15,11.304530065420675,2,35,0
3.4687749999099085,-2,15,11.0346545029738,11,35,0
3.4965125482400334,6,15,11.11906470886828,13,35,0
3.597165550819146,2,15,11.213367023334246,2,35,0
3.563200808262145,-4,15,11.233806122592645,-1,35,0
3.53977400408557,-1,15,11.104305471302558,-7,35,0
3.53977400408557,1,15,11.072560679445385,-7,35,0
3.6211048037857156,-8,15,11.278723332008818,-14,35,0
3.644392953565793,1,15,11.278723332008818,0,35,0
3.6443929535657924,1,15,11.100648629697277,9,35,0
3.633235472688219,7,15,11.126994203287788,14,35,0
3.633235472688219,-1,15,11.189209087330525,6,35,0
3.5721142198983507,0,15,11.189209087330523,0,35,0
3.649712317429962,4,15,11.06952573509814,-5,35,0
3.5793295461580517,-5,15,10.993525367233206,-7,35,0
3.5793295461580517,-1,15,11.159014293386312,-15,35,0
3.5384177254812617,0,15,11.08916588387062,2,35,0
3.519318115771862,-3,15,10.90799706637291,5,35,0
3.519318115771862,0,15,10.870804937997923,9,35,0
3.5341194094144566,6,15,11.003635762783135,11,35,0
3.5100427347825813,-2,15,10.959854013626277,-2,35,0
3.403292523424924,0,15,10.848704991841192,-4,35,0
3.4409301068170515,3,15,10.790810905580729,-5,35,0
3.371943060017472,-4,15,10.936617392960223,-15,35,0
3.3337066457623403,-6,15,10.876102242991285,-3,35,0
3.3541019662496834,2,15,10.73640535747417,6,35,0
3.3669570831835682,6,15,10.694465858564419,10,35,0
3.358571124749333,-1,15,10.788809016754353,10,35,0
3.430743359681687,4,15,10.810161885929364,2,35,0
3.5552777669262365,2,16,10.790662630255847,-2,35,0
3.5599999999999987,-10,16,10.717630335106731,-8,35,0
3.5606740934828625,2,16,10.86675664584424,-15,35,0
3.5606740934828625,-1,16,10.923808859550778,-4,35,0
3.4919335617963854,-3,16,10.728671865613189,5,35,0
3.4919335617963854,5,16,10.67333125130107,11,35,0
3.477987924073343,2,16,10.759944237773723,11,35,0
3.4437769962644227,0,16,10.734691425467247,3,35,0
3.4437769962644227,0,16,10.63646557837706,-2,33,0
3.3990586932266984,-3,16,10.538709598428074,-10,33,0
3.423506973850058,-2,16,10.63766891757776,-12,33,0
3.554208772708771,-4,16,10.798222075878972,-7,33,0
3.3526705773159384,4,14,10.61508360777248,4,31,0
3.2827427556846427,2,14,10.44147499159003,13,31,0
3.2982419559516853,4,14,10.568803148890604,13,31,0
3.4772978014544575,5,15,10.824047302187848,6,36,0
3.5093589158135434,-3,15,10.910618680899812,-4,36,0
3.4906159914834505,-4,15,10.816672316382705,-10,36,0
3.502513383272075,-5,15,10.82892423096588,-11,36,0
3.6322995471188757,-3,15,11.072289736093435,-10,36,0
3.6904742242698307,2,15,11.099549540409287,1,36,0
3.701297069947238,3,15,10.953282612988675,15,36,0
3.7139736132611376,5,15,11.041449180248037,11,36,0
3.7139736132611376,1,15,11.08447563035798,3,36,0
3.6413733672887774,-1,15,11.084475630357982,0,36,0
3.641373367288778,-1,15,10.987265355856296,-7,36,0
3.6386810797320503,-2,15,10.96724213282446,-8,36,0
3.66955038117751,-4,15,11.187653909555836,-14,36,0
3.7435811731549253,-4,16,11.21634521580002,-1,36,0
3.7435811731549253,3,16,11.035959405507072,10,36,0
3.70540146272978,4,16,11.009014488136527,11,36,0
3.724728178001717,5,16,11.117265850918562,9,36,0
3.724728178001717,-2,16,11.117265850918562,0,36,0
3.724728178001717,0,16,11.009014488136527,-6,36,0
3.630757496721585,-4,16,10.949502271792998,-8,36,0
3.6465874458183496,-1,16,11.168097420778526,-15,36,0
3.647519705224359,2,16,11.168097420778526,2,36,0
3.6545314337134944,-1,16,11.087308059217984,7,36,0
3.6356017383646404,2,16,11.05768511036555,10,36,0
3.6897696405060314,5,16,11.258774356030056,12,36,0
3.6897696405060314,-2,16,11.236529713394608,-3,36,0
3.7128964434791354,0,16,11.200732118928656,-3,36,0
3.7113878805643594,-4,16,11.156504829022394,-8,36,0
3.723492983745235,-4,16,11.317685275708987,-15,36,0
3.7242985916813898,4,16,11.365227670398864,-1,36,0
3.6739080010256098,-3,16,11.250173331998045,4,36,0
3.6739080010256098,0,16,11.169673227091291,9,36,0
3.6639323137852853,5,16,11.280797844124324,13,36,0
3.841874542459708,7,16,11.365720390718748,3,36,0
3.9881825434651326,1,17,11.387642425014935,-1,36,0
3.8693151848873724,-7,17,11.313425652736663,-9,36,0
3.850662280699257,-3,17,11.393752674163155,-14,36,0
3.8861806442830193,-3,17,11.525779800082944,-8,36,0
3.8977429366237053,1,17,11.423852239940784,5,36,0
3.847076812334269,1,17,11.302459909240993,12,36,0
3.891734831665695,6,17,11.389907813498755,11,36,0
3.8800000000000012,-4,17,11.428053202536292,2,36,0
3.867815921162743,0,17,11.351493293835839,-3,36,0
3.858963591432291,1,17,11.258490129675472,-5,36,0
3.8833490700682547,2,17,11.287674694107727,-10,36,0
3.981406786551709,-10,17,11.462565157939126,-12,36,0
3.9496835316263,1,17,11.377609590770813,3,36,0
3.9294274392079034,6,17,11.211440585402038,13,36,0
4.088814008976199,8,17,11.358327341646744,15,36,0
4.127178212774436,-3,17,11.454693361238439,3,36,0
3.9924428612066585,-2,17,11.320777358467925,-3,34,0
3.930648801406708,-2,17,11.170478951235705,-8,34,0
3.9362926720456155,-3,17,11.186938812740507,-11,34,0
3.9362926720456155,-2,17,11.489403813949618,-14,36,0
3.9038954904044227,-2,17,11.519045099312704,2,36,0
3.8514412886606477,4,17,11.332801948326814,12,36,0
3.8444245343093955,3,17,11.377609590770813,13,36,0
3.8231400706748904,0,17,11.396209896276918,4,36,0
3.7907782842049715,1,17,11.353660202771612,0,36,0
3.7666430677726828,-3,17,11.214722466472363,-7,36,0
3.7738044464439335,-2,17,11.180715540608304,-6,36,0
3.809251895057609,-1,17,11.363168572189712,-13,36,0
3.7812167353908706,2,17,11.31271850617702,1,36,0
3.618618520927567,2,16,11.089021597958947,9,36,0
3.5777087639996634,3,16,11.059041549790832,8,36,0
3.5774851502137666,-2,16,11.198946379012625,10,36,0
3.5324778838656603,-1,16,11.155716023635598,-2,36,0
3.5440654621493635,-3,16,11.033693851108973,-5,36,0
3.5309488809667036,3,16,10.986828477772828,-5,36,0
3.5864188266291466,-5,16,11.2310996790163,-18,36,0
3.604497191010139,1,16,11.2310996790163,1,36,0
3.604497191010139,3,16,11.119640281951572,8,36,0
3.6575401569907604,-4,16,11.081678573212633,8,36,0
3.6619666847201136,6,16,11.20813989919826,12,36,0
3.6356017383646404,3,16,11.157132248028612,1,36,0
3.6097645352571104,-3,16,11.098846786941428,-4,36,0
3.5786030794152044,-2,16,11.020435563080072,-8,36,0
3.578211843924282,1,16,11.134738434287533,-13,36,0
3.5782118439242816,-5,16,11.213723734781412,-5,36,0
3.5826805606975363,6,16,11.078700284780703,9,36,0
3.5752482431294172,2,16,10.990905331227268,11,36,0
3.714835124201342,5,16,11.19716035430412,12,36,0
3.8065732621348545,-2,16,11.289800706832692,0,36,0
3.679619545550873,-2,16,11.26587768440613,-2,36,0
3.452593228285079,-3,15,11.127785044652866,-9,36,0
3.4802873444587856,-5,15,11.21292111806732,-15,36,0
3.500000000000002,1,15,11.373460335359683,-6,36,0
3.523861518277924,-2,15,11.22007130102122,5,36,0
3.5114099732158897,3,15,11.077111536858332,12,36,0
3.579720659492861,7,15,11.208014989283335,12,36,0
3.5591572036087427,-2,15,11.269143711924167,1,36,0
3.572170208710663,-1,15,11.248839940189386,-2,36,0
3.574129264590189,-3,15,11.18465019569231,-8,36,0
3.5793295461580517,-1,15,11.223635774560755,-11,36,0
3.6720021786485915,-5,15,11.410959644131601,-8,36,0
3.610484731999293,2,15,11.326358638150216,1,36,0
3.521590549737434,4,15,11.136767933291956,13,36,0
3.57211421989835,5,15,11.26277052949229,14,36,0
3.4073450074801652,-1,15,11.22035650057519,-1,36,0
3.322649545167229,-3,15,11.09947746517826,0,35,0
3.287795614085524,-1,15,10.946798618774348,-9,35,0
3.2994545003682045,-2,15,10.960383204979651,-9,35,0
3.3808874574584684,-3,15,11.20680150622826,-11,35,0
3.3638668225719055,3,15,11.082617019458898,2,33,0
3.27566787083184,3,15,10.814601240914987,12,33,0
3.30454232837166,3,15,10.862485903328022,13,33,0
3.3332266649599434,0,15,10.972620470972283,4,33,0
3.3443085982008287,-1,15,10.99347078951866,-1,33,0
3.3286633954186464,-3,15,10.905796623814329,-7,33,0
3.3352061405556332,-1,15,10.89770618066022,-8,33,0
3.442382895611701,-5,15,11.146748404803978,-14,33,0
3.424850361694655,4,15,11.146748404803978,2,33,0
3.424850361694655,1,15,11.008378627209368,9,33,0
3.4418599622878316,4,15,11.022957860755884,12,33,0
3.464621191414727,2,15,11.217201076917538,9,33,0
3.574576898039822,2,15,11.241014189120126,-1,33,0
3.6044971910101395,-3,15,11.205802068571442,-5,33,0
3.5871437105307065,-2,15,11.177638391001917,-7,33,0
3.6266237742561587,-5,15,11.399017501521786,-18,33,0
3.6031097679643325,0,15,11.343791253368513,1,33,0
3.6031097679643325,0,15,11.191085738211463,6,33,0
3.6031097679643325,3,15,11.135456883307484,10,33,0
3.565613551690647,4,15,11.282287002199508,12,33,0
3.698432100228421,4,15,11.327153216938491,1,33,0
3.666060555964672,-5,15,11.251328810411684,-5,33,0
3.6876008460786545,1,15,11.189298458795351,-6,33,0
3.7094473981982814,-6,15,11.361971659883682,-17,33,0
3.8367173468995577,-4,15,11.487053582185467,-3,33,0
3.897127147014838,0,15,11.34197513663295,6,33,0
3.897127147014838,8,15,11.28708997040424,12,33,0
3.9395938876995915,4,15,11.404016836185397,11,33,0
3.768501028260441,-4,14,11.355509675923843,1,33,0
3.6756496024512435,1,14,11.264546151532253,-2,33,0
3.675649602451244,2,14,11.136265083051857,-6,33,0
3.6709126930506004,-4,14,11.190067023927963,-14,33,0
3.6709126930506,-4,14,11.365227670398866,-9,33,0
3.6878177829171532,0,14,11.220712989823776,7,33,0
3.6365368140581213,2,14,11.096395811253311,11,33,0
3.6581962768555742,5,14,11.22498997772381,12,33,0
3.6581962768555747,2,14,11.270652155044091,2,33,0
3.6581962768555747,-2,14,11.248751041782372,-2,33,0
3.6486161760316733,-2,14,11.149887891813083,-9,33,0
3.65535224020887,-3,14,11.196946012194575,-11,33,0
3.767704871669225,-5,14,11.36290455825446,-8,33,0
3.648616176031673,6,14,11.28794046759638,3,33,0
3.587143710530707,0,14,11.09226757701057,12,33,0
3.5979994441355894,3,14,11.195159668356679,12,33,0
3.654257790577998,4,14,11.265948695072243,4,33,0
3.654257790577998,-3,14,11.307413497347657,-2,33,0
3.6796195455508722,0,14,11.245550231091405,-6,33,0
3.6796195455508722,-2,14,11.251684318358741,-10,33,0
3.7863438829562224,-8,14,11.463699228434077,-14,33,0
3.757445941061562,2,14,11.433214771008194,0,33,0
3.775764823184834,1,14,11.263463055383983,9,33,0
3.775764823184834,4,14,11.26809655620682,13,33,0
3.7945223678349835,4,14,11.343526788437538,8,33,0
3.8651778743028125,2,14,11.343526788437538,0,33,0
3.854815170666424,-6,14,11.251328810411682,-7,33,0
3.862434465463461,-2,14,11.239661916623652,-9,33,0
4.05309758086331,-7,16,11.54693032801359,-16,34,0
4.053097580863309,2,16,11.546930328013591,2,34,0
4.041583847948723,5,16,11.423221962301183,8,34,0
4.041583847948723,0,16,11.39545523443447,11,34,0
4.054676312604988,5,16,11.533065507487592,12,34,0
4.054676312604988,1,16,11.48510339526815,-1,34,0
3.9626253923377597,-3,16,11.370857487454494,-5,34,0
3.9397461847179955,0,16,11.3,-7,34,0
4.015420276882609,-7,16,11.485921817599145,-16,34,0
4.124318125460256,-2,16,11.513835156019908,-2,34,0
4.1436216043456495,3,16,11.408347820784572,7,34,0
4.114170633311164,5,16,11.341410846980196,10,34,0
4.141304142416973,3,16,11.489838989298324,13,34,0
4.127420501960033,-1,16,11.513192433030904,1,34,0
4.040594015735803,2,15,11.448126484276802,-3,34,0
4.026164427839479,-5,15,11.37718770171258,-10,34,0
3.9999999999999987,-1,15,11.487662947701766,-13,34,0
4.119465984809199,-6,15,11.626194562280473,-7,34,0
4.034302913763419,5,15,11.468216949465162,9,34,0
3.935530459798272,4,15,11.376537258761998,13,34,0
3.935530459798272,0,15,11.52326342665132,10,34,0
3.8582897765719966,-1,15,11.544713075689668,0,34,0
3.8689016529242504,2,15,11.485364600220578,-3,34,0
3.858289776571996,-1,15,11.39370001360401,-6,34,0
3.8075714044519238,-3,15,11.437849448213592,-13,34,0
3.9073776372395868,-5,15,11.641718086262015,-9,34,0
3.893584466786356,4,15,11.471512541944938,7,34,0
3.8742741255621054,4,15,11.373653766490346,9,34,0
3.9504936400404422,4,15,11.522864227265718,15,34,0
3.970944472036847,-1,15,11.676797506165805,5,37,0
4.075487700877039,4,17,11.727386750678942,-2,37,0
4.050876448375093,-7,17,11.627278271375463,-11,37,0
4.092725253422221,-6,17,11.661286378440414,-12,37,0
4.134005321718879,0,17,11.878451077476388,-11,37,0
4.105800774514028,-1,17,11.90564571957355,1,37,0
4.131876087203001,2,17,11.787603658080807,12,37,0
4.131876087203001,3,17,11.84229707446997,13,37,0
4.192564847441241,6,17,11.86168622076979,4,37,0
4.192564847441241,1,17,11.81438106715709,1,37,0
4.265630082414557,0,17,11.711549854737415,-6,37,0
4.240801810978673,-5,17,11.669515842570332,-9,37,0
4.2464573470129165,-4,17,11.79871179409007,-11,37,0
4.1515780132378595,2,17,11.722132911718756,-1,37,0
4.104680255513211,0,17,11.49434643640081,10,37,0
4.089449840748754,3,17,11.482595525402782,11,37,0
4.089792170758801,-3,17,11.564237977489048,4,37,0
4.113830331941268,6,17,11.542963224406462,1,37,0
4.113830331941269,1,17,11.467589110183534,-3,37,0
4.141304142416973,-3,17,11.436782764396638,-9,37,0
4.186119921836928,-8,17,11.64784958694093,-16,37,0
4.147288270665543,-3,16,11.586699271147069,-1,37,0
4.045985664828784,6,16,11.392910076007796,9,37,0
4.038861225642691,2,16,11.323762625558695,10,37,0
4.124318125460254,6,16,11.485799928607499,12,37,0
4.1416904761220374,-2,16,11.485799928607499,0,37,0
4.102145779954683,-5,16,11.397262829293707,-6,37,0
4.110279795828991,3,16,11.344937196829253,-7,37,0
4.125821130393317,-5,16,11.541247766164625,-16,37,0
4.04479912974674,2,16,11.541247766164625,0,37,0
3.88582037670297,1,16,11.345413170087724,7,37,0
3.8281065815883455,2,16,11.25443912418562,8,37,0
3.840000000000001,-4,16,11.320936357033371,9,37,0
3.8400000000000016,5,16,11.299557513460426,3,37,0
3.919183588453084,3,16,11.234963284319178,-1,37,0
3.919183588453084,-2,16,11.144505372604028,-7,37,0
3.9831645710414745,-9,16,11.273703916637157,-16,37,0
3.971699887957298,5,16,11.37191276786803,-4,37,0
3.8252320191068128,-3,16,11.12368643930599,7,36,0
3.8107217164206575,1,16,11.035016991377946,7,36,0
3.828524519968495,5,16,11.113523293717435,12,36,0
3.8316576047449757,-4,16,11.071476866254114,1,36,0
3.8316576047449757,1,16,10.953885155505331,-5,36,0
3.8277408480721373,-1,16,10.867363985806307,-4,36,0
3.826225293941797,1,16,10.941316191391236,-12,36,0
3.8833490700682547,-5,16,11.221835856935357,-10,38,0
3.794733192202054,1,16,11.135690369258656,5,38,0
3.780423256726686,2,16,11.033204430264126,14,38,0
3.798999868386413,5,16,11.183630895196785,14,38,0
3.7592020429873148,0,16,11.140843774149246,-2,38,0
3.729289476562528,-1,16,10.956733089748973,0,36,0
3.5580331645447054,-2,14,10.73053586732741,-7,34,0
3.5580331645447054,1,14,10.731560930265456,-10,34,0
3.5580331645447054,-6,14,10.940859198435925,-11,34,0
3.53247788386566,1,14,10.88124992820218,1,34,0
3.4293439605848786,3,14,10.641823152073144,12,34,0
3.3870931489995937,3,14,10.720746242682925,14,34,0
3.475629439396552,4,14,10.844279598018487,4,34,0
3.539265460515783,1,15,10.89219904335208,0,34,0
3.4569350586899925,-5,15,10.768491073497716,-8,34,0
3.361904222312109,-2,15,10.726807539990638,-9,34,0
3.390339216066734,-3,15,10.946944779252338,-13,34,0
3.4713109915419547,-3,15,11.051244273836316,-1,34,0
3.541129763225292,1,15,10.938171693660692,9,34,0
3.5406779011934995,6,15,10.945483086643549,12,34,0
3.573513677041126,3,15,11.05848090833456,9,34,0
3.611094017053558,0,15,11.079783391384508,-1,34,0
3.611094017053558,1,15,11.005017037696947,-4,34,0
3.514768840194187,-5,15,10.925639569379912,-7,34,0
3.5599999999999987,-5,15,11.166037793237134,-18,34,0
3.5013711599886137,3,15,11.139766604377309,2,34,0
3.36101175243408,-2,13,10.962554446843127,6,34,0
3.36101175243408,2,13,10.912763169793433,8,34,0
3.38608918961093,5,13,11.048275883593783,13,34,0
3.32770190972689,1,13,10.999799998181786,0,34,0
3.466179452942389,4,14,10.950963427936376,0,34,0
3.462311366702885,-8,14,10.890748367306998,-10,34,0
3.500914166328561,-4,14,11.074312619752071,-17,34,0
3.486201371120147,2,14,11.100702680461268,-1,34,0
3.5552777669262356,-3,14,11.012719918348964,5,34,0
3.566286584109584,7,14,10.970870521521983,13,34,0
3.6235341863986865,3,14,11.134828242950134,11,34,0
3.703025789810272,1,14,11.266392501595176,2,35,0
3.690853559815126,-4,14,11.208996386831426,-6,35,0
3.610207750254823,-4,14,11.094575250995419,-8,35,0
3.610207750254823,-2,14,11.191067866830224,-13,35,0
3.585582240027413,0,14,11.284750772613453,-4,35,0
3.6277265608091227,0,14,11.191067866830224,4,35,0
3.6461486530310316,0,14,11.139569111954017,8,35,0
3.640054944640258,5,14,11.220053475808397,13,35,0
3.6400549446402577,2,14,11.260834782554976,3,35,0
3.6632772212869735,0,14,11.241370023266738,-2,35,0
3.6632772212869735,-3,14,11.205641436348033,-9,35,0
3.6632772212869735,-1,14,11.261065668932048,-10,35,0
3.7577120698637865,-5,14,11.389907813498755,-7,35,0
3.716180835212408,3,14,11.15533952867415,5,32,0
3.676955262170047,4,14,10.967515671290377,10,32,0
3.67608487388417,1,14,11.063977584937525,11,32,0
3.7182791718750776,3,14,11.019637017615416,1,32,0
3.6977831196542597,-4,14,11.040941988797876,1,32,0
3.729021319327635,3,14,10.950360724651956,-7,32,0
3.740802053036219,-6,14,10.951182584543098,-10,32,0
3.7629775444453557,-1,14,11.167022879890592,-12,32,0
3.7389303283158424,-1,14,11.167022879890594,0,32,0
3.6945906403822315,4,14,10.97125334681503,12,32,0
3.6932912151629718,1,14,11.04,14,32,0
3.705995143008152,2,14,11.10367506729191,4,32,0
3.6345563690772478,0,14,11.055876265588356,-1,32,0
3.524145286448902,0,14,10.90520976414484,-6,32,0
3.515679166249389,-2,14,10.866756645844239,-7,32,0
3.5599999999999987,-5,14,11.024137154444333,-13,32,0
3.603553801457669,-1,14,11.024137154444333,-2,32,0
3.529362548676461,2,14,10.816820235170777,9,32,0
3.4606935721037195,4,14,10.782597089755326,11,32,0
3.482814953453598,2,14,10.95264351652148,10,32,0
3.440697603684463,-2,14,10.908143746760949,-3,32,0
3.393876839250359,-1,14,10.806016842481785,-5,32,0
3.320481892737862,1,14,10.740968298994279,-6,32,0
3.3645207682521456,-5,14,10.95627673984187,-16,32,0
3.395820961122656,-2,14,10.900568792498856,1,32,0
3.4091641204260004,3,14,10.760836398719201,7,32,0
3.416665040650018,7,14,10.712161313199127,12,32,0
3.4056423769973265,-4,14,10.873527486515128,9,32,0
3.3813606728652874,1,14,10.852188719332153,-2,32,0
3.4784479297525803,6,14,10.81112390087173,-1,32,0
3.2885255054507323,-6,13,10.676347690104516,-8,32,0
3.29848450049413,-3,13,10.839944649305181,-16,32,0
3.2670475968372408,4,13,10.814360822535933,0,32,0
3.281767816284386,-5,13,10.643758734582443,6,32,0
3.2062439083762793,3,13,10.537191276616365,8,32,0
3.2432082880999173,4,13,10.695718769676024,13,32,0
3.360059523282287,4,14,10.720988760370934,1,32,0
3.2799999999999994,-5,14,10.5849137927524,-5,31,0
3.2680269276736382,-3,14,10.504170600290154,-9,31,0
3.3635695325056076,-6,14,10.650821564555478,-13,31,0
3.389690251335657,1,14,10.811179399122,-5,32,0
3.389690251335657,1,14,10.734262899705783,5,32,0
3.346401051876478,3,14,10.613199329137279,14,32,0
3.481379037105842,9,14,10.763661087195192,12,32,0
3.481379037105842,-7,14,10.845257027844012,0,32,0
3.481379037105842,2,14,10.824047302187846,-2,32,0
3.4583811241677784,-3,14,10.733797091430413,-9,32,0
3.50662230643678,-4,14,10.803258767612672,-11,32,0
3.5033698063436,4,14,10.905429840221798,-5,32,0
3.407990610315703,-2,14,10.8053505264753,2,32,0
3.3781059782073153,2,14,10.698336319260111,12,32,0
3.4423828956117024,5,14,10.854750112278033,13,32,0
3.4423828956117024,-3,14,10.837435120913069,-4,32,0
3.376388603226826,-2,14,10.837435120913069,2,32,0
3.376388603226826,1,14,10.71897383148219,-7,32,0
3.3325065641345715,-1,14,10.725744729388257,-10,32,0
3.369510350184429,-4,14,10.991287458710195,-12,32,0
3.4495796845412934,-2,14,10.991287458710195,1,32,0
3.4495796845412934,2,14,10.778886769977687,10,32,0
3.4495796845412934,4,14,10.78333900051371,12,32,0
3.5171010790137935,5,14,10.842213796084266,7,32,0
3.5171010790137935,-2,14,10.797481187758558,-1,32,0
3.4951967040497167,-2,14,10.694970780698748,-5,32,0
3.4811492355255336,1,14,10.658123662258756,-7,32,0
3.523691246406246,-6,14,10.909170454255445,-16,32,0
3.523691246406246,0,14,10.961405019430675,1,32,0
3.4983424646537973,0,14,10.79460976598969,8,32,0
3.4756294393965534,3,14,10.766410729672169,11,32,0
3.518010801575232,5,14,10.937440285551277,11,32,0
3.668023991197441,4,14,10.937440285551277,0,32,0
3.6661151100313236,-8,14,10.900073394248317,-5,32,0
3.6695503811775105,-1,14,10.865431422635735,-8,32,0
3.667424164178448,1,14,11.03267873184024,-15,32,0
3.6923705122861104,-5,14,11.005616747824723,-1,32,0
3.6166835637086057,2,14,10.87972426121177,6,32,0
3.616683563708606,0,14,10.82635672791175,9,32,0
3.584689665786983,5,14,10.88852607105296,9,32,0
3.587979933054251,-3,14,10.823696226335992,1,32,0
3.587979933054251,2,14,10.75473849054453,-3,32,0
3.4756294393965534,2,14,10.658799181896617,-5,32,0
3.4837336293120926,-5,14,10.817929561612056,-16,32,0
3.647958333095378,-6,16,10.9952899006802,-6,34,0
3.65535224020887,5,16,10.951255635770723,8,34,0
3.65535224020887,0,16,10.905576555139119,10,34,0
3.683965254993592,6,16,11.029342682136594,13,34,0
3.7094473981982814,2,16,11.054790816655014,3,34,0
3.5723381698825776,-1,16,10.963375392642542,-4,34,0
3.5464912237308575,-3,16,10.897779590356926,-6,34,0
3.551056180912943,0,16,10.91364283820943,-9,34,0
3.478850384825422,-4,16,10.936836837038394,-9,34,0
3.435112807463534,0,16,10.759646834352882,3,34,0
3.3955853692699276,4,16,10.617137090572013,12,34,0
3.4204678042630383,2,16,10.80622043084445,13,34,0
3.3761516553614705,4,16,10.887148386974435,2,36,0
3.4204678042630383,-3,16,10.96715095181971,0,36,0
3.4204678042630383,-1,16,10.900715572841992,-9,36,0
3.4204678042630383,-3,16,10.917527192546855,-12,36,0
3.47844792975258,-6,16,11.101513410341852,-12,36,0
3.5476189197826775,1,16,11.182557846932877,0,36,0
3.5609549281056596,2,16,11.080812244596514,12,36,0
3.562920150662936,2,16,11.128342194594847,12,36,0
3.51567916624939,4,16,11.105476126668322,5,36,0
3.5516756608676987,1,16,11.163082011702683,0,36,0
3.555334020876236,-3,16,11.07436679905447,-7,36,0
3.5516756608676987,-1,16,11.069164376772079,-9,36,0
3.644392953565793,-6,16,11.28469760339195,-13,36,0
3.6266237742561587,3,16,11.2,2,36,0
3.5552777669262356,0,16,10.981602797406216,9,36,0
3.5171010790137935,4,16,10.965418368671575,11,36,0
3.529362548676461,1,16,11.074294559925702,7,36,0
3.482814953453598,1,16,11.05348813723523,-1,36,0
3.458381124167778,-2,16,10.987720418721986,-4,36,0
3.464101615137755,-3,16,10.955929901199623,-9,36,0
3.4896418154303452,-2,16,11.175258386274564,-14,36,0
3.577093792452193,-3,16,11.146676634764283,0,36,0
3.5999999999999983,2,16,10.979781418589353,8,36,0
3.5643232176669937,4,16,10.92703070371819,9,36,0
3.5933828073279344,4,16,11.074294559925702,12,36,0
3.6512463625452614,3,16,11.074294559925702,1,36,0
3.4896418154303452,-3,15,10.969503179269333,-5,36,0
3.4896418154303452,-3,15,10.896898641356632,-7,36,0
3.5086179615341404,-3,15,11.089021597958947,-17,36,0
3.50861796153414,3,15,11.089021597958949,1,36,0
3.4756294393965534,3,15,10.936178491593854,7,36,0
3.4623113667028855,-5,15,10.868302535354818,8,36,0
3.4664679430221192,5,15,11.024354856407697,12,36,0
3.5942175782776435,4,15,11.127191918898497,1,36,0
3.6571026783507192,-2,15,11.127191918898497,-4,36,0
3.6643689770545773,-3,15,11.092051207959692,-7,36,0
3.6542577905779976,-4,15,11.177405781307213,-13,36,0
3.6876008460786545,-2,15,11.259289498010077,-7,36,0
3.579106033634655,-1,14,11.010831031307312,6,33,0
3.5535334527762648,6,14,10.8787683126354,10,33,0
3.5329307946802473,1,14,10.960091240496128,11,33,0
3.5131752020074356,-1,14,10.941663493271944,0,33,0
3.450449246112745,-2,14,10.810753905255636,-3,33,0
3.4056423769973274,1,14,10.721641665342116,-6,33,0
3.4146156445491798,-2,14,10.838007196897406,-13,33,0
3.5479007877898736,-5,14,11.134163641693078,-7,35,0
3.5347418576184606,5,14,11.134163641693078,5,35,0
3.5347418576184606,-1,14,11.045161836750061,10,35,0
3.534741857618461,4,14,11.121672536089164,13,35,0
3.555334020876236,3,14,11.052673884630813,2,35,0
3.4106304402558756,-3,14,10.926829366289198,0,35,0
3.38845097352758,2,14,10.693717781950298,-7,33,0
3.356247905027278,-3,14,10.663282796587549,-10,33,0
3.48275752816644,-7,14,10.831140290846571,-9,33,0
3.393464306575216,6,14,10.727534665523109,2,33,0
3.3289037234501095,1,14,10.48284312579369,11,33,0
3.320783040187961,2,14,10.56976820937905,12,33,0
3.396527638633315,3,14,10.712254664635266,4,33,0
3.4756294393965534,1,14,10.736032786835182,-1,33,0
3.4283523739545783,-6,14,10.620527293877645,-8,33,0
3.4249087579087405,0,14,10.604074688533649,-9,33,0
3.4928498393145966,-5,14,10.812955192730618,-12,33,0
3.492849839314597,-1,14,10.812955192730618,-1,33,0
3.469927953142541,6,14,10.648737014313014,11,33,0
3.4458090486850823,0,14,10.672881522812855,13,33,0
3.4899283660270175,4,14,10.836401616772978,7,33,0
3.615743353724098,3,14,10.884870233493828,0,33,0
3.594217578277643,-6,14,10.817190023291632,-7,33,0
3.594440151122286,-2,14,10.768268198740222,-8,33,0
3.594440151122286,-1,14,11.01533476568007,-16,33,0
3.5606740934828625,0,14,10.988375676140672,2,33,0
3.46554469023269,-2,14,10.835571050941434,6,33,0
3.4176600181995846,1,14,10.784451770952476,10,33,0
3.4368008379887254,6,14,10.94394809929214,12,33,0
3.423448553724738,-1,14,10.920879085494903,-1,33,0
3.3241540277189308,-1,14,10.797333004033913,-4,33,0
3.298241955951686,-1,14,10.721734934235224,-6,33,0
3.3105890714493698,-2,14,10.838099464389503,-14,33,0
3.2827427556846427,2,14,10.812511271670427,-2,33,0
3.3316062192281986,-4,14,10.6962423308375,6,33,0
3.3035738223929534,4,14,10.65787971408948,9,33,0
3.3195782864695347,3,14,10.796314185869175,11,33,0
3.292172534968361,-3,14,10.77285477484961,0,33,0
3.1391718653173473,1,14,10.647140461175479,-4,33,0
3.051622519251028,-1,14,10.551132640622047,-6,33,0
3.0437476899375207,-2,14,10.641503653149773,-13,33,0
3.0578423765786207,-1,14,10.807423374699448,-6,33,0
3.014962686336269,2,14,10.659849905134687,6,33,0
2.9393876913398156,1,14,10.558806750764976,10,33,0
2.9508642801728437,2,14,10.661031844995119,11,33,0
2.9508642801728437,0,14,10.752785685579342,4,33,0
2.9621613730517775,0,14,10.752785685579342,-4,33,0
2.96405128160766,-1,14,10.72054103112338,-6,33,0
2.9681644159311644,0,14,10.738882623438995,-9,33,0
2.98422519257512,-4,14,10.785564426584267,-9,33,0
2.8492806109612996,0,14,10.566456359631642,3,31,0
2.8389434654462584,4,14,10.384526951190411,10,31,0
2.808914381037626,0,14,10.462428016478777,11,31,0
2.8355599094358745,2,14,10.569030229874455,4,31,0
2.8660774588276556,2,14,10.637668917577763,0,31,0
2.891366458960195,-2,14,10.586047421016026,-6,31,0
2.8680306832389384,-4,14,10.583005244258361,-11,31,0
3.036379422931201,-6,14,10.790736768172968,-13,31,0
2.9933259094191533,1,14,10.881929975882034,-2,32,0
3.019668856017162,3,14,10.77109093824762,11,32,0
3.023177136722228,4,14,10.810291392927391,14,32,0
3.091666217430335,4,14,10.872442227944925,6,32,0
3.0626132632116665,-1,14,10.848115043637764,0,32,0
2.9410882339705466,-4,14,10.727553309119466,-7,32,0
2.9530323398161413,-2,14,10.708874824182043,-8,32,0
3.001932710771513,-2,14,10.928055636754419,-14,32,0
3.036840463376369,-2,14,10.9577552445745,-1,32,0
2.973213749463701,2,14,10.753306468245013,9,32,0
3.0201986689620277,0,14,10.723506889073184,10,32,0
3.036840463376369,6,14,10.7895505003684,9,32,0
3.104834939252005,4,14,10.7895505003684,3,32,0
2.935574901105403,-5,13,10.683463857756996,-5,32,0
2.930938416275578,-2,13,10.637368095539424,-9,32,0
3.074020169094537,-6,13,10.92902557413057,-18,32,0
3.2434549480453705,-1,14,10.92902557413057,1,32,0
3.2550883244545,5,14,10.800462953040485,8,32,0
3.219689426016118,2,14,10.73282814546101,11,32,0
3.2015621187164243,1,14,10.864639892789821,10,32,0
3.3352061405556324,7,15,10.864639892789821,1,32,0
3.5227829907617085,1,16,10.864639892789821,-1,32,0
3.5191476240703508,-9,16,10.814730694751487,-9,32,0
3.5383612025908255,-2,16,10.96322945121555,-16,32,0
3.5361561051514676,4,16,10.98551773927838,0,32,0
3.540847356212916,0,16,10.853589268071646,6,32,0
3.530948880966702,2,16,10.809717850156868,11,32,0
3.53474185761846,-2,16,10.959215300376208,9,32,0
3.7360942172273974,8,17,11.058191533881116,3,34,0
3.760265948041442,-6,17,11.019782212004012,-6,34,0
3.760265948041442,-4,17,10.966421476489037,-9,34,0
3.7704641624075945,-1,17,11.095873106700529,-13,34,0
3.8851512197081863,-5,17,11.308403954581745,-7,35,0
3.9242833740697156,2,17,11.226771575123456,5,35,0
3.922703149615072,5,17,11.122301920016376,16,35,0
3.9227031496150726,0,17,11.20644457444019,8,35,0
3.9118282170872467,-1,17,11.20644457444019,0,35,0
3.898922928194401,1,17,11.10596236262306,-1,35,0
3.885563022265884,0,17,11.025878649794764,-6,35,0
3.8812884458643357,0,17,11.068893350285746,-11,35,0
3.9097826026519664,-4,17,11.329607230614839,-10,35,0
3.9097826026519664,1,17,11.306440642394936,5,35,0
3.8974863694437705,4,17,11.204802541767526,12,35,0
3.9069681339882965,1,17,11.294175490047955,11,35,0
3.9739652741311144,3,17,11.312665468403104,1,35,0
3.9600000000000004,-3,17,11.266747534226544,1,35,0
3.892351474366104,-1,17,11.104395526096862,-8,35,0
3.8689016529242504,-3,17,11.061934731320738,-9,35,0
3.9454277334656607,-4,17,11.269871339105872,-11,35,0
3.8535178733204303,3,17,11.243558155672963,1,35,0
3.789934036365279,0,17,10.979981785048643,11,35,0
3.7865023438524363,5,17,11.000454536063499,12,35,0
3.8304568918080752,2,17,11.109437429501096,5,35,0
3.805469747613296,0,17,11.086929241228159,-1,35,0
3.760904146611556,-3,17,10.977504270097098,-5,35,0
3.7617017425627965,-2,17,10.945391724374236,-9,35,0
3.789459064299282,-3,17,11.110787550844453,-12,35,0
3.773009408946659,1,17,11.083771921146699,-1,35,0
3.690853559815125,4,17,10.851377792704483,10,35,0
3.6640960686095574,1,17,10.840590389826561,12,35,0
3.6658423315794715,2,17,11.038568747804216,8,35,0
3.7842304369580853,3,17,11.104521601581945,-1,35,0
3.693020444026815,-6,17,10.98828467050249,-6,35,0
3.701297069947238,-3,17,10.916794401288318,-8,35,0
3.709231726382165,0,17,11.118561057978681,-15,35,0
3.5997777709186454,-1,17,11.03030371295369,0,35,0
3.4255510505610625,1,16,10.825894882179487,7,35,0
3.409926685428882,0,16,10.749306954404085,8,35,0
3.446969683649684,6,16,10.919871794119196,14,35,0
3.485742388645492,0,16,10.941955949463514,-1,35,0
3.358571124749334,-5,16,10.849165866553982,-5,35,0
3.2459821318054116,-4,16,10.720541031123384,-8,35,0
3.290227955628608,1,16,10.866995905032816,-13,35,0
3.4484199280250083,-4,17,10.974971526158964,-4,35,0
3.4456349197208906,7,17,10.913404601681366,7,35,0
3.4557777706328263,3,17,10.871688001409902,11,35,0
3.6166835637086066,6,17,11.011357772772623,12,35,0
3.6846166693429594,-3,17,11.035651317434779,1,35,0
3.479597677893236,-2,16,10.957025143714874,-1,34,0
3.4641016151377553,-1,16,10.87352748651513,-10,34,0
3.466179452942389,-1,16,10.960383204979653,-13,34,0
3.4597687784012376,0,16,11.006561679289316,-4,34,0
3.3195782864695342,-2,16,10.738044514714955,6,33,0
3.2435166101008313,2,16,10.557727028106,6,33,0
3.2435166101008313,-1,16,10.612370140548247,10,33,0
3.2456740440161274,1,16,10.594885558607983,1,33,0
3.243454948045371,0,16,10.594885558607983,1,33,0
3.245242671973854,0,16,10.5239536296964,-8,33,0
3.260000000000001,-3,16,10.575462164841781,-10,33,0
3.372891934230921,-4,16,10.814083410072259,-10,33,0
3.399764697740124,1,16,10.782281762224544,1,33,0
3.374255473434104,6,16,10.632497354808041,15,33,0
3.4157868785976677,3,16,10.707474025184466,11,33,0
3.415786878597668,-2,16,10.72686347447379,2,33,0
3.3564266713277093,0,16,10.726863474473792,0,33,0
3.3705192478311097,1,16,10.616006782213354,-6,33,0
3.4368008379887254,2,16,10.603791774643634,-7,33,0
3.4738451318387815,-9,16,10.760000000000002,-12,33,0
3.3915188337970332,1,16,10.705213683061164,0,33,0
3.361190265367314,4,16,10.511726784881729,10,33,0
3.3475961524652282,2,16,10.57166022912201,13,33,0
3.3459826658247964,-4,16,10.645261856807467,3,33,0
3.3459826658247964,5,16,10.622259646610036,0,33,0
3.370459909270542,1,16,10.548345841884403,-4,33,0
3.376921675135507,-3,16,10.503256637824288,-8,33,0
3.4278856457005653,-6,16,10.737895510760012,-16,33,0
3.376921675135507,3,16,10.737895510760012,2,33,0
3.42864404685001,-4,16,10.589145385724008,6,33,0
3.4434866051721467,3,16,10.566910617583547,9,33,0
3.439825576973342,1,16,10.655777775460596,11,33,0
3.402116987994387,0,16,10.538481864101675,-2,32,0
3.3060550509633067,5,16,10.412012293500236,-2,32,0
3.314453197738658,-2,16,10.352371708937037,-6,32,0
3.330165161069341,-5,16,10.530432089900206,-16,32,0
3.5550527422247904,-6,17,10.589069836392623,-3,32,0
3.555052742224791,6,17,10.475036992774772,7,32,0
3.5467731813579526,2,17,10.419692893746916,9,32,0
3.5381351019993574,2,17,10.539146075465508,12,32,0
3.4926207924708916,-1,17,10.467110393991266,0,32,0
3.444648022657759,0,17,10.349512065793247,-4,32,0
3.4696397507522305,3,17,10.293221070199552,-4,32,0
3.3965276386333154,-3,17,10.400173075482927,-14,32,0
3.370459909270544,3,17,10.377205789614079,-1,32,0
3.166133288413486,-4,17,10.166395624802332,4,32,0
3.166133288413486,0,17,10.073112726461469,8,32,0
3.1587339235839402,2,17,10.172511980823616,10,32,0
3.038486465331052,4,14,10.227335918996697,5,33,0
3.038486465331052,0,14,10.153797319229882,-4,33,0
3.017880050631568,-6,14,9.98206391484246,-11,33,0
3.062090788987159,-3,14,10.081983931746768,-11,33,0
3.1394904045083503,-1,14,10.259142264341593,-6,33,0
3.1834572401714447,1,14,10.189720310194977,6,33,0
3.18125761295749,4,14,10.13747503079539,12,33,0
3.2078029864690865,3,14,10.283365207946279,11,33,0
3.2587727751409745,1,14,10.361949623502326,0,33,0
3.283230116820935,-1,14,10.400788431652671,-1,33,0
3.283230116820935,-4,14,10.305901222115416,-9,33,0
3.3264996618066878,-3,14,10.357779684855243,-10,33,0
3.454214816713055,-3,14,10.596018120029806,-10,33,0
3.454214816713055,1,14,10.564090116995406,1,33,0
3.396233207540377,4,14,10.314281361297065,13,33,0
3.405935994701014,4,14,10.432334350470175,15,33,0
3.4330161665800545,3,14,10.516653460107925,2,33,0
3.4481879299133325,-2,14,10.587558736554898,1,33,0
3.509757826403412,2,14,10.51948667949154,-7,33,0
3.482814953453598,-5,14,10.498304625033509,-9,33,0
3.4713109915419578,-5,14,10.727832959176798,-14,33,0
3.4953683639925557,0,14,10.781910776852127,0,33,0
3.4828149534536013,3,14,10.638496134322747,10,33,0
3.493078871139328,4,14,10.673799698326743,13,33,0
3.514598127809208,2,14,10.75637485401099,6,33,0
3.5270384177096794,-2,14,10.75637485401099,-1,33,0
3.475859605910458,-2,14,10.681292056675542,-4,33,0
3.3985879420724117,1,14,10.61892649941603,-9,33,0
3.4190057034172976,-5,14,10.844353369380766,-15,33,0
3.5054814220018335,-3,14,10.873619452601789,-1,33,0
3.5602808877952326,2,14,10.772631990372643,8,33,0
3.5114099732158874,6,14,10.724625867600233,11,33,0
3.521874500887276,1,14,10.884557868834179,11,33,0
3.67047680826347,5,16,10.90763035677319,0,33,0
3.716772793701547,-3,16,10.926957490536877,-2,33,0
3.771683974036002,2,16,10.882352686804447,-7,33,0
3.771683974036002,-4,16,11.003635762783134,-16,33,0
3.7514797080618725,-3,16,11.003635762783134,-2,33,0
3.630371881777404,-5,14,10.834777339659546,4,33,0
3.6494383129462546,2,14,10.748488265798128,8,33,0
3.6496575181789317,5,14,10.822661410207752,11,33,0
3.671294049786806,2,14,10.843689409052619,3,33,0
3.6815214246286807,-1,14,10.791496652457433,-4,33,0
3.6846166693429594,-3,14,10.745864320751496,-8,33,0
3.6712940497868063,-1,14,10.886689120205462,-13,33,0
3.674180180666159,3,14,10.953008719068931,-1,33,0
3.671566423204132,-4,14,10.91437584106393,4,33,0
3.6695503811775105,3,14,10.861970355326882,11,33,0
3.679184692292574,2,14,10.938756784936759,8,33,0
3.6783148315499026,-3,14,10.958029019855717,2,33,0
3.6093766774887897,2,14,10.808681695748097,-3,32,0
3.5341194094144606,-2,14,10.690182411914213,-8,32,0
3.5329307946802473,1,14,10.757490413660614,-9,32,0
3.5329307946802473,-4,14,10.936251643044795,-9,32,0
3.508902962465617,0,14,10.830992567627403,5,32,0
3.468083043988424,4,14,10.72969710662887,12,32,0
3.4965125482400334,3,14,10.89219904335208,14,32,0
3.517101079013793,1,14,10.89219904335208,-1,32,0
3.4965125482400334,-1,14,10.870676151923577,-1,32,0
3.4814364851308124,-1,14,10.76988393623627,-7,32,0
3.552407634267218,3,14,10.76691227790029,-6,32,0
3.5097578264034133,-6,14,10.837416666346279,-10,32,0
3.413209633175201,-3,14,10.722238572238542,-2,32,0
3.380177510131681,-1,14,10.490548126766305,8,32,0
3.3801775101316816,3,14,10.524257693538296,13,32,0
3.3719430600174713,3,14,10.48610509197767,2,32,0
3.3014542250347816,-2,14,10.401230696412803,0,32,0
3.3014542250347816,4,14,10.231813133555557,-4,31,0
3.2680269276736404,-7,14,10.19066239260236,-9,31,0
3.310830711468045,0,14,10.512868305082108,-15,32,0
3.342154993413683,-2,14,10.574024777727733,1,32,0
3.297332255020714,3,14,10.390457160298576,11,32,0
3.330165161069345,-1,14,10.365500470310153,8,32,0
3.319277029715958,5,14,10.438869670610893,10,32,0
3.319277029715958,3,14,10.390784378476923,0,32,0
3.5042830935870475,4,15,10.346187703690667,-1,32,0
3.553252031590218,-4,15,10.280564186852782,-8,32,0
3.572114219898352,-7,15,10.473757682894899,-17,32,0
3.532760959929214,2,15,10.420000000000002,1,32,0
3.496512548240033,-5,14,10.248902380255165,4,32,0
3.4374990909089713,4,14,10.188405174510876,12,32,0
3.481379037105842,6,14,10.385778738255501,12,33,0
3.4726934791311503,-3,14,10.361003812372623,-2,33,0
3.4024109099284296,4,14,10.27260434359272,-3,33,0
3.3564266713277093,-4,14,10.142208832399382,-9,33,0
3.28292552458931,-5,14,10.288809454936949,-14,33,0
3.436509857398929,-4,16,10.449899521048037,-4,33,0
3.4534620310639004,5,16,10.349801930471905,9,33,0
3.3709939187129954,4,16,10.271046684734715,9,33,0
3.3647585351700946,2,16,10.425276974737889,12,33,0
3.6035538014576676,6,17,10.59828287978765,4,35,0
3.7146197651980484,-2,17,10.555017764077897,-6,35,0
3.7031878159229237,-7,17,10.49207319837219,-8,35,0
3.7236541192758503,-3,17,10.574100434552344,-12,35,0
3.777247675225971,-2,17,10.71193726643318,-8,35,0
3.8107217164206575,1,17,10.628264204469138,8,35,0
3.794733192202055,5,17,10.547037498748168,10,35,0
3.840000000000001,3,17,10.649112639088761,10,35,0
3.8721570216095307,0,17,10.76,4,35,0
3.880670045237035,-2,17,10.80562816313795,-1,35,0
3.9012305750878156,1,17,10.758735985235441,-9,35,0
3.9204591567825307,0,17,10.787474217813921,-10,35,0
4.012430684759552,-9,17,10.941462425105707,-10,35,0
4.012430684759552,2,17,10.828130032466364,2,35,0
3.971951661337283,4,17,10.683520019169713,12,35,0
4.034649922855762,-5,17,10.74618071688728,10,35,0
4.011234224026315,5,17,10.646238772449172,0,35,0
3.971699887957298,1,17,10.603848358025497,2,35,0
3.958231928525666,1,17,10.49969523367226,-6,35,0
4.027952333382309,-8,17,10.520000000000001,-11,35,0
3.971145930332956,3,17,10.68389442104329,-7,35,0
3.976128770550573,1,17,10.729100614683414,0,35,0
3.9501392380522504,3,17,10.570241246064347,11,35,0
3.9423850649067735,3,17,10.646858691651731,13,35,0
4.00124980474851,1,17,10.716809226630843,1,35,0
3.998199594817649,-5,17,10.75511041319428,0,35,0
3.998199594817649,-1,17,10.700672876039151,-6,35,0
3.9767323269237043,2,17,10.679419459877021,-8,35,0
4.056057198807729,-8,17,10.917069203774425,-14,35,0
4.077057762651884,2,17,10.853644549182546,0,34,0
4.00179959518215,3,17,10.609901036296238,10,34,0
3.9831645710414745,1,17,10.595867118834587,12,34,0
4.007043798113518,6,17,10.781465577554844,9,34,0
4.014174884082654,-3,17,10.802758906871889,-2,34,0
4.014174884082654,2,17,10.76566765231028,-3,34,0
3.862434465463462,-2,17,10.671457257563281,-8,34,0
3.8223029707232774,-1,17,10.865008053379436,-16,34,0
3.802157282385883,-2,17,10.83926196749576,1,34,0
3.809671901883414,-1,17,10.708669385129046,7,34,0
3.73764631820615,5,17,10.629468472129732,10,34,0
3.72564088446538,-3,17,10.76074346873858,9,34,0
3.6876008460786553,-1,17,10.691099101589131,-1,34,0
3.687817782917155,0,17,10.589145385724006,-5,34,0
3.6212704952820065,2,17,10.510585140704583,-5,34,0
3.627726560809122,-3,17,10.6849613944085,-15,34,0
3.5971655508191462,4,17,10.711041032504731,-1,34,0
3.4138541269363003,-1,16,10.460611836790429,8,34,0
3.4138541269363003,-4,16,10.387222920492269,7,34,0
3.42490875790874,1,16,10.466116758377957,9,34,0
3.4024109099284296,3,16,10.444137111317525,2,34,0
3.1837713485738894,2,14,10.257407079764358,-3,32,0
3.0244999586708534,-2,12,10.172590623828327,-4,32,0
3.0499836065133183,-4,12,10.257173099836038,-14,32,0
3.0350617786134113,1,12,10.431893404363372,-7,32,0
2.959797290356214,1,12,10.223991392797629,7,31,0
2.907988995852633,1,12,10.135166500852364,11,31,0
2.935915530120036,3,12,10.257504569825937,10,31,0
2.879236009777592,-3,12,10.350826053992016,3,31,0
2.854049754296517,3,12,10.278054290574651,-3,31,0
2.8380274840106803,-3,12,10.14630967396521,-5,31,0
2.8020706629205487,0,12,10.172511980823616,-13,31,0
2.8125433329995086,-4,12,10.348120602312287,-8,31,0
2.7221315177632426,1,12,10.292152350213243,1,31,0
2.6758176320519325,4,12,10.118181654823163,11,31,0
2.68745232515853,-3,12,10.18163051775107,11,31,0
2.63696795581592,5,12,10.260526302290737,4,31,0
2.6981475126464085,1,12,10.362258441092848,1,31,0
2.7091696144759947,-2,12,10.31309846748299,-6,31,0
2.6981475126464085,-1,12,10.305357829789317,-10,31,0
2.595457570448803,-4,12,10.471389592599445,-12,31,0
2.595457570448803,0,12,10.471389592599445,1,31,0
2.6418932605235983,-1,12,10.3208720561782,8,31,0
2.6381811916545836,4,12,10.347869345908848,12,31,0
2.6114363863590495,3,12,10.390072184542321,6,31,0
2.5285569006846558,-1,12,10.39007218454232,-1,31,0
2.5285569006846558,-2,12,10.297494840979528,-6,31,0
2.5396850198400567,-2,12,10.28007782071712,-8,31,0
2.6251857077166947,-3,12,10.539905122912636,-14,31,0
2.473944219257984,2,10,10.453879662594169,3,31,0
2.3903137869325852,1,10,10.21567423129771,8,31,0
2.374531532744932,2,10,10.173475315741417,8,31,0
2.407986710926785,3,10,10.313117860278723,11,31,0
2.3193964732231542,-1,9,10.24078122019995,-2,31,0
2.340939982143925,1,9,10.16267681273,-3,31,0
2.31075745157297,0,9,10.08565317666635,-6,31,0
2.329291737846506,-6,9,10.268709753420826,-16,31,0
2.3268863315598374,2,9,10.268709753420826,-1,31,0
2.323876072427271,1,9,10.143845424689792,7,31,0
2.3137847782367302,1,9,10.1002178194334,9,31,0
2.291287847477919,1,9,10.19115302603194,9,31,0
2.2964320151051707,-1,9,10.147728809935746,0,31,0
2.2964320151051707,-2,9,10.075733223939585,-3,31,0
2.292684016605865,1,9,10.039043779165425,-6,31,0
2.323876072427271,-3,9,10.194586798884988,-14,31,0
2.5024787711387284,-4,11,10.315037566582102,-5,32,0
2.4839484696748437,6,11,10.198529305738157,8,32,0
2.488051446413438,-1,11,10.156554533895832,9,32,0
2.466090022687737,3,11,10.26,11,32,0
2.4955159787106145,2,11,10.372733487369665,4,32,0
2.5299011838409813,0,11,10.333711821025393,-5,32,0
2.4955159787106145,-2,11,10.273383084456649,-7,32,0
2.4923081671414558,-2,11,10.344544455895583,-12,32,0
2.551940438176408,-4,11,10.58347768930421,-9,33,0
2.569357896440277,2,11,10.499066625181502,5,33,0
2.569357896440277,2,11,10.413856154182275,13,33,0
2.609904212801689,4,11,10.557575479247118,13,33,0
2.6381811916545845,1,11,10.750348831549607,6,37,0
2.702887345044185,0,11,10.750348831549607,-4,37,0
2.6683328128252675,-5,11,10.649995305163285,-10,37,0
2.6799999999999993,-1,11,10.641879533240358,-10,37,0
2.730860670191724,-2,11,10.854381603757997,-11,37,0
2.7308606701917246,0,11,10.8816359064251,1,37,0
2.8205673188208085,-2,11,10.742830167139383,10,37,0
2.814888985377575,5,11,10.818964830333812,15,37,0
2.825668062600417,3,11,10.942924654771227,5,37,0
2.926021189260256,4,13,10.990923528075337,0,37,0
2.8805555019822124,-4,13,10.878988923608665,-7,37,0
2.8618874890533337,-2,13,10.831731163576762,-9,37,0
2.9273879141651196,-5,13,11.044002897500524,-14,37,0
2.9273879141651196,2,13,11.044002897500524,1,37,0
2.947880594596735,-1,13,10.907263634844442,9,37,0
2.927387914165119,1,13,10.889921946460406,9,37,0
2.9476092006912986,0,13,10.95087211138912,7,37,0
2.9051678092667887,3,13,10.891482910972226,-1,37,0
2.8817355881482247,-1,13,10.809551332039641,-3,37,0
2.925747767665557,4,13,10.781855127945285,-6,37,0
2.938639140826924,-6,13,10.965929053208397,-15,37,0
2.8919889349719154,0,13,10.910197065131317,0,37,0
2.8792360097775935,4,13,10.772353503297227,9,37,0
3.0107142009828824,5,13,10.825968778820673,15,37,0
3.229179462340239,2,15,11.089616765244863,8,37,0
3.2518302538724244,-4,15,11.113883209751664,-3,37,0
3.2902279556286076,0,15,11.095025912542969,-4,37,0
3.274202192901347,-2,15,11.059764916127287,-5,37,0
3.2452426719738545,-3,15,11.202874631093575,-18,37,0
3.231098884280703,-1,15,11.228107587656972,-2,37,0
3.3671352809175925,-5,15,11.15750868249718,3,37,0
3.405877273185279,3,15,11.103170718312857,12,37,0
3.400941046239996,3,15,11.192783389309378,10,37,0
3.3894542333538,2,15,11.211440585402041,1,37,0
3.3894542333538,0,15,11.166019881766287,-4,37,0
3.3894542333538,-2,15,11.12519662747585,-5,37,0
3.407286310247498,-2,15,11.269232449461677,-15,37,0
3.5099857549568476,-4,15,11.433722053644647,-6,37,0
3.4246751670778934,3,15,11.242081657771394,9,37,0
3.4307433596816885,5,15,11.158207741389292,11,37,0
3.480747046253147,3,15,11.265238568268314,10,37,0
3.5077628198040975,-1,15,11.349008767288888,3,37,0
3.529532546952924,1,15,11.325528685231433,-1,37,0
3.529532546952924,-1,15,11.276967677527502,-8,37,0
3.529532546952924,-2,15,11.330048543585328,-13,37,0
3.6889564920177627,-9,16,11.493580817134404,-9,37,0
3.666933323637068,4,16,11.35078851886511,3,37,0
3.6669333236370676,1,16,11.185419080213311,11,37,0
3.6817930414405438,5,16,11.253515006432433,12,37,0
3.8368737273983884,6,16,11.323621328885915,6,37,0
3.8616576751441847,-3,16,11.237508620686345,0,36,0
3.842082768499399,-2,16,11.097098719935763,-9,36,0
3.842082768499399,-4,16,11.105692234165325,-11,36,0
3.842082768499399,-1,16,11.24684844745407,-9,36,0
3.825232019106813,-1,16,11.190513839855614,-1,36,0
3.7913585955432922,4,16,10.968755626779185,12,36,0
3.698432100228421,-1,16,11.003435827049657,12,36,0
3.7066966425646446,2,16,11.058318136136254,3,36,0
3.698648401781386,-1,16,10.992524732744522,-1,36,0
3.6439538965250384,3,16,10.850419346734947,-5,36,0
3.634556369077248,-5,16,10.811031403154836,-8,36,0
3.6752686976600786,-3,16,11.068531971313991,-15,36,0
3.7765592806150927,-4,16,11.097819605670294,0,36,0
3.7645185615162005,6,16,10.941005438258403,10,36,0
3.7256408844653808,2,16,10.931148155614762,12,36,0
3.728216731897438,3,16,11.030521293211848,6,36,0
3.726929030716843,0,16,11.049054258170695,0,36,0
3.730093832599924,-4,16,11.02099813991455,-4,36,0
3.726929030716843,1,16,10.990250224630918,-7,36,0
3.728216731897438,-3,16,11.2196256622046,-16,36,0
3.7467852887508806,-1,16,11.24684844745407,0,36,0
3.7467852887508806,1,16,11.1198021565134,7,36,0
3.7467852887508806,4,16,11.095656807958688,12,36,0
3.67287353444139,2,16,11.151699422061196,9,36,0
3.5366085449198374,1,16,11.044292643714218,1,34,0
3.5002285639655026,-2,16,10.95717116777866,-3,34,0
3.463004475885064,0,16,10.872644572503969,-7,34,0
3.4684867017187746,-5,16,10.971326264403952,-15,34,0
3.504796713077665,-1,16,11.07626290767784,-5,34,0
3.5566276161555077,-1,16,10.967661555682692,7,34,0
3.4376736319784627,6,16,10.843541856791996,10,34,0
3.427477206342881,2,16,10.957171167778657,11,34,0
3.4747086208774385,1,16,11.044292643714218,3,34,0
3.4747086208774385,-3,16,10.992724866929036,-6,34,0
3.481436485130812,-3,16,10.94716401631034,-8,34,0
3.5025133832720763,-1,16,11.04717158371318,-11,34,0
3.5025133832720763,0,16,11.152111907616426,-6,34,0
3.3896902513356566,0,16,10.961040096633166,5,32,0
3.343590884064618,3,16,10.873840168036311,12,32,0
3.3674322561857144,3,16,10.96532717250151,10,32,0
3.4631777315061365,4,16,11.033131921625882,4,32,0
3.482814953453598,-3,16,10.986191332759502,-2,32,0
3.482814953453598,0,16,10.845533642933386,-8,32,0
3.46069357210372,-3,16,10.875458611019582,-12,32,0
3.595830919273039,-8,16,11.072777429353486,-9,32,0
3.426309968464618,5,16,10.99136024339117,3,32,0
3.381360672865288,1,16,10.827816030945483,11,32,0
3.3626775046084925,3,16,10.897632770469006,12,32,0
3.3547578154018804,-1,16,10.955345727086842,3,32,0
3.174649586962315,1,15,10.904109317133607,1,32,0
3.1240998703626617,1,15,10.72753466552311,-7,31,0
3.098128467317002,-2,15,10.697457641888562,-9,31,0
3.1230754073509,-4,15,10.848336277973688,-11,31,0
3.1230754073509,1,15,10.848336277973686,0,31,0
3.098128467317002,1,15,10.6710074500958,9,31,0
3.094575899860917,1,15,10.727553309119466,13,31,0
3.1079897039726516,2,15,10.765221781273253,3,31,0
3.1079897039726516,0,15,10.743630671239586,0,31,0
3.1556932677305625,2,15,10.675204916066015,-4,31,0
3.10457726590916,-4,15,10.64097739871672,-9,31,0
3.1789306378088855,-5,15,10.862338606395955,-14,31,0
3.1331134674633163,4,15,10.779777363192618,2,31,0
2.9526936854336916,-2,14,10.563881862270138,7,31,0
2.938298827553112,3,14,10.538235146361082,11,31,0
2.966546814058391,3,14,10.675204916066013,9,31,0
2.9890466707631034,1,14,10.72,0,31,0
2.9890466707631034,-1,14,10.666752082991332,-5,31,0
2.9845602691183832,-3,14,10.620753268954138,-7,31,0
3.0714166112723933,-5,14,10.850271885994378,-17,31,0
3.2,-2,14,10.879779409528489,-1,31,0
3.26165602110339,1,14,10.74013035302645,7,31,0
3.23703568098963,7,14,10.66900182772503,10,31,0
3.2817678162843866,3,14,10.796295661012623,12,31,0
3.2555183919001287,-4,14,10.774952436089912,-1,31,0
3.2059943855222204,0,14,10.662101106254807,-4,31,0
3.1927417684491792,0,14,10.56834897228512,-5,31,0
3.178930637808886,0,14,10.704933442109764,-15,31,0
3.163858403911273,-2,14,10.804165863221463,-3,31,0
3.163858403911273,-2,14,10.636089506956964,6,31,0
3.098128467317002,2,14,10.550374400939525,10,31,0
3.098128467317002,3,14,10.64961971152022,10,31,0
3.2246550203083735,6,14,10.720541031123384,4,31,0
3.2246550203083735,-3,14,10.67147599912964,-2,31,0
3.233635724691327,-2,14,10.644604266951402,-6,31,0
3.2202484376209224,-2,14,10.732921317143807,-16,31,0
3.220248437620922,-3,14,10.854013082726594,-6,31,0
3.2039975031201267,1,14,10.74616210560775,3,31,0
3.177168550769693,1,14,10.620734437881403,11,31,0
3.2018119869848705,4,14,10.716342659695052,12,31,0
3.2018119869848705,0,14,10.780371051128062,3,31,0
3.079025819963189,0,14,10.710742271196708,-2,31,0
3.0292573347274416,-3,14,10.577334257741882,-9,31,0
2.989381206872085,-2,14,10.630540908157027,-11,31,0
3.0355230191846667,-2,14,10.801648022408434,-7,31,0
2.8872824593378463,2,14,10.744468344222529,1,31,0
2.8772208813367106,1,14,10.572492610543646,14,31,0
2.8878365604722176,3,14,10.682621401135584,12,31,0
3.037367281051142,5,14,10.816357982241529,4,32,0
3.0834396378071025,-3,14,10.863958762808332,-1,32,0
3.1195512497793656,0,14,10.75360404701605,-7,32,0
3.0984512260159893,-5,14,10.726956697964248,-10,32,0
3.1779867841134912,-4,14,10.94743805645869,-13,32,0
3.2,1,14,11.000436354981563,0,32,0
3.2155248405198193,1,14,10.859907918578315,10,32,0
3.2155248405198193,4,14,10.886395179305225,13,32,0
3.290227955628608,4,14,11.00719764517745,7,32,0
3.3823069050575536,1,14,11.074746046749787,0,32,0
3.470100863087412,0,14,11.038858636652613,-5,32,0
3.4292856398964506,-6,14,10.994998863119543,-10,32,0
3.4583811241677784,-3,14,11.215863765221117,-15,32,0
3.6188948589313843,-6,16,11.274910199198928,-2,33,0
3.6606010435446255,5,16,11.192157968863736,8,33,0
3.637801533893787,5,16,11.15591323021114,12,33,0
3.66065567897337,2,16,11.317172791823937,12,33,0
3.8937899275641468,7,19,11.366336261082552,1,33,0
3.8655400657605385,-8,19,11.288932633336067,-6,33,0
3.8454648613659184,-2,19,11.232114671779309,-8,33,0
3.8897300677553432,-4,19,11.447689723258577,-17,33,0
4.1854987755344055,-8,22,11.569200490958742,-4,35,0
4.1544674748997625,6,22,11.447637310816587,8,35,0
4.085878118593358,9,22,11.366283473501795,12,35,0
4.119660180160495,1,22,11.495198997842532,12,35,0
4.165621202173812,2,22,11.565396664187528,3,35,0
4.217866759393899,-1,22,11.547276735230689,-5,35,0
4.233627286382211,-2,22,11.512445439610127,-7,35,0
4.237924020083417,-4,22,11.628602667560708,-15,35,0
4.250929310162659,-1,22,11.675427187045448,-3,35,0
4.282242403227542,-2,22,11.562075938169581,4,35,0
4.3314662644421,-2,22,11.48566062531886,8,35,0
4.3194444087173975,6,22,11.55674694713006,12,35,0
4.319444408717398,1,22,11.525623627379128,-1,35,0
4.214261501141094,0,22,11.396508237175103,-1,35,0
4.182104733265295,-2,22,11.263906959843021,-7,35,0
4.175931033913278,0,22,11.30530848760882,-10,35,0
4.214071665266268,-3,22,11.490883342894051,-8,35,0
4.2140716652662675,1,22,11.419281938896159,5,35,0
4.2140716652662675,5,22,11.285672332652585,12,35,0
4.247399204218976,2,22,11.419351995625671,13,35,0
4.283409856644589,1,22,11.504781614615727,2,35,0
4.298837052040934,-1,22,11.462216190597697,-3,35,0
4.283176391417941,-5,22,11.366424239839018,-7,35,0
4.283176391417941,1,22,11.388081488995415,-10,35,0
4.358715407089573,-6,22,11.533325626201666,-10,35,0
4.358715407089574,2,22,11.50758011051846,1,35,0
4.348976891177968,4,22,11.329766105264486,12,35,0
4.348057037344383,1,22,11.40577046937207,12,35,0
4.358944826445958,2,22,11.472331933831063,5,35,0
4.256571390215373,-1,22,11.422784249034908,-1,35,0
4.221326805638248,-1,22,11.267457565928527,-8,35,0
4.18396940715393,-2,22,11.223350658337287,-8,35,0
4.292132337195579,-6,22,11.481532998689675,-15,35,0
4.316526381246845,1,22,11.53748672805304,0,35,0
4.301441618806418,3,22,11.369802109095831,11,35,0
4.294228685107488,5,22,11.36346778056769,11,35,0
4.377030957167203,4,22,11.497825881443848,10,35,0
4.503154449938402,3,22,11.523697323342018,1,35,0
4.442926963162911,-6,22,11.419702272826559,-6,35,0
4.358944826445957,-3,22,11.341534287740789,-8,35,0
4.392220395198766,-4,22,11.543673592058985,-17,35,0
4.407085204531446,0,22,11.543673592058985,0,35,0
4.228285704632555,5,22,11.308846094982458,10,35,0
4.226771817829775,3,22,11.256997823576233,11,35,0
4.244337404118577,-1,22,11.457765925345132,10,35,0
4.226771817829775,-2,22,11.391224692718513,-4,35,0
4.007443075079172,2,21,11.261332070408013,-2,35,0
4.0062451248020245,-5,21,11.18257573191436,-9,35,0
4.090427850482148,-4,21,11.415796073861866,-17,35,0
4.1112528504094685,1,21,11.47214016650773,-1,35,0
3.7757648231848346,2,16,11.221853679316977,8,33,0
3.7228483718787166,-1,16,11.105386080636732,9,33,0
3.7416573867739413,8,16,11.221069467746823,12,33,0
3.8283677984227173,3,16,11.2942463227964,4,33,0
3.757658845611187,-4,16,11.180787092150535,-5,33,0
3.691287038418986,-4,16,11.08555817268576,-9,33,0
3.673091341091316,-1,16,11.189798925807379,-13,33,0
3.6799999999999984,0,16,11.283634166349067,-4,33,0
3.6922080114749747,-1,16,11.179552763863141,6,33,0
3.6551333764994123,2,16,11.08555817268576,11,33,0
3.6954566700206355,8,16,11.263551837675362,13,33,0
3.7363618668431977,-3,16,11.419211881736846,2,34,0
3.773592452822641,0,16,11.469071453260717,-5,34,0
3.7719490982779726,-4,16,11.440209788286225,-7,34,0
3.7765592806150927,2,16,11.508761879542037,-13,34,0
3.8193716760744842,-6,16,11.697674982662152,-9,34,0
3.8437481707312733,-1,16,11.614542608299306,3,34,0
3.8298302834459927,3,16,11.475626344561766,13,34,0
3.881030790911093,7,16,11.598896499236469,14,34,0
3.8641428545021475,-2,16,11.620137692815865,1,34,0
3.8053120765582396,-2,16,11.575854180145841,-1,34,0
3.768076432345822,-2,16,11.479529607087562,-9,34,0
3.7761885546142966,-1,16,11.494851021218151,-9,34,0
3.9019994874423056,-5,16,11.766460810286162,-13,35,0
3.9019994874423056,1,16,11.793642355099632,2,35,0
3.8721570216095307,4,16,11.629703349613006,12,35,0
3.881443030626627,0,16,11.680479442214692,13,35,0
3.9444137713987377,7,16,11.755849607748475,5,35,0
3.962272075463775,-1,16,11.732842792776179,0,35,0
3.9749213828703582,-1,16,11.6292906060516,-6,35,0
3.9824113298352306,-1,16,11.606136308005345,-7,35,0
3.9899874686520005,-4,16,11.80889495253472,-16,35,0
3.957221247289569,-4,16,11.780050933675971,-1,35,0
3.874274125562102,4,16,11.551294299774375,10,35,0
3.9346664407545404,8,16,11.554202698585478,14,35,0
3.928409347305851,-5,16,11.684177335182824,6,35,0
3.862641583165593,2,16,11.640206183740903,-1,35,0
3.6523417145716266,-3,14,11.489125293076057,-5,35,0
3.693291215162972,-5,14,11.41816097276615,-6,35,0
3.6951860575619198,4,14,11.603861426266693,-16,35,0
3.69518605756192,-3,14,11.577927275639626,0,35,0
3.69518605756192,0,14,11.416216536138405,7,35,0
3.7376463182061506,8,14,11.391242250079664,10,35,0
3.691557936698273,-4,14,11.496086290559932,10,35,0
3.7663775700266715,6,14,11.44720053113424,1,35,0
3.763030693470355,-6,14,11.396929411029976,-5,35,0
3.7566474415361344,-3,14,11.32298547203872,-9,35,0
3.8075714044519238,-2,14,11.5615915859366,-16,35,0
3.8769059828682955,-3,15,11.65375475973302,-3,36,0
3.9344631145811992,1,15,11.525623627379126,7,36,0
3.917192872453435,7,15,11.447270417003347,13,36,0
4.0131782915788845,7,15,11.557439162721126,11,36,0
3.9698866482558413,-7,15,11.57758178550253,1,36,0
3.8628486897625183,3,15,11.467449585675098,-2,36,0
3.9067121726587417,2,15,11.384006324664442,-7,36,0
3.908964057138413,-4,15,11.445680407909352,-12,36,0
3.9851725182230195,-7,15,11.566226696723525,-8,36,0
4.012181451529828,2,15,11.494155036365223,4,36,0
3.9940455680925804,4,15,11.416058864599465,12,36,0
4.0596058922018505,5,15,11.52659533426935,12,36,0
4.026710816535005,1,15,11.552125345580354,4,36,0
4.077450183631924,0,15,11.475260345630506,-2,35,0
4.046529377132954,-4,15,11.398052465224048,-7,35,0
4.065907032877167,-5,15,11.417530380953666,-13,35,0
4.13226330235623,-3,15,11.588891232555426,-10,35,0
4.13226330235623,2,15,11.482926456265405,3,35,0
4.079411722295263,4,15,11.305149269248949,11,35,0
4.084115571332426,2,15,11.415235433402152,14,35,0
4.084115571332426,3,15,11.573089475157442,7,38,0
4.220189569201837,3,16,11.64817582284883,-2,38,0
4.220189569201837,-7,16,11.554462341450595,-10,38,0
4.23797121273847,-4,16,11.565535007080301,-11,38,0
4.284857057125709,-2,16,11.834204662756177,-14,38,0
4.284857057125709,-2,16,11.803795999592676,1,38,0
4.2396226247155555,3,16,11.60592951900019,11,38,0
4.233249342998825,3,16,11.619380362136358,13,38,0
4.247163759498805,4,16,11.688438732354287,6,38,0
4.208752784376863,0,16,11.647162744634421,-1,38,0
4.191658383026936,0,16,11.530828244319657,-5,38,0
4.179186523714874,-1,16,11.48496408353113,-6,38,0
4.176122603564219,-4,16,11.692065685754592,-16,38,0
4.187075351602835,-1,16,11.64283470637628,2,38,0
4.115385765636073,5,16,11.42434243184263,9,38,0
4.106044325138248,-2,16,11.40878608792364,10,38,0
4.018158782328047,1,16,11.492536708664455,7,38,0
4.13763217311544,6,16,11.492536708664453,1,38,0
4.175931033913279,-2,16,11.437219941926449,-4,38,0
4.235138722639437,-10,16,11.392207863272159,-9,38,0
4.1975707260271395,2,16,11.629273408085302,-17,38,0
4.380365281571849,-6,17,11.710866748452055,-1,38,0
4.423980108454377,3,17,11.625988130047268,7,38,0
4.3909452285356485,6,17,11.577719982794541,11,38,0
4.3909452285356485,4,17,11.725186565679882,13,38,0
4.536474401999863,4,17,11.794931114678032,2,38,0
4.457981606063442,-7,17,11.703948051832766,-7,38,0
4.467482512556711,1,17,11.654372569984195,-5,38,0
4.447426221985027,-2,17,11.768024473122072,-15,38,0
4.47213595499958,-6,17,11.74088582688717,-4,38,0
4.346262762420145,3,17,11.45993019175946,8,37,0
4.258826129345972,7,17,11.319010557464818,10,37,0
4.274997076022394,-1,17,11.443006597918224,10,37,0
4.246221850068597,3,17,11.531591390610403,3,37,0
4.252058325093858,-4,17,11.47834482841494,-6,37,0
4.248529157249602,-4,17,11.39370001360401,-9,37,0
4.257933771208752,-3,17,11.530498688261494,-13,37,0
4.369942791387549,-2,17,11.76470994117577,-6,37,0
4.344928077655603,2,17,11.66514466262635,6,37,0
4.316665379665187,7,17,11.525640980006273,12,37,0
4.324997109825626,0,17,11.611787114824317,11,37,0
4.304648650006175,2,17,11.631422956801117,2,37,0
4.221326805638248,-4,17,11.54207953533504,-1,37,0
4.135891681366911,1,17,11.396490687926702,-9,37,0
4.132795663954364,-3,17,11.412694686181704,-10,37,0
4.132795663954363,-1,17,11.611098139280367,-9,37,0
4.0694471368970975,0,17,11.511733144926525,4,37,0
4.031922618305069,3,17,11.363098169073432,9,37,0
4.034055031850705,-1,17,11.416987343428215,12,37,0
4.04677649494014,4,17,11.437412294745696,4,37,0
4.0062451248020245,0,17,11.32353301757009,2,35,0
3.839583310725265,-2,17,11.101783640478681,-10,34,0
3.8368737273983884,-2,17,11.073283162639706,-8,34,0
3.8535697735995407,-3,17,11.264546151532253,-12,34,0
3.8535697735995407,-1,17,11.203588710765848,-1,34,0
3.753877994820823,2,17,10.950799057603053,12,34,0
3.714888962001419,3,17,10.950086757647174,11,34,0
3.7814811912794184,5,17,11.098990945126497,8,34,0
3.768076432345822,-3,17,11.098990945126497,-2,34,0
3.742993454442579,-2,17,11.02005444632648,-6,34,0
3.7185481037630828,-1,17,10.98573620655439,-8,34,0
3.725801927102406,-2,17,11.199214258152217,-14,34,0
3.719193460953595,2,17,11.172842073528113,1,34,0
3.719193460953595,-2,17,11.048981853546506,8,34,0
3.706426850755319,2,17,11.036684284693479,9,34,0
3.755316231690746,5,17,11.196499452954036,12,34,0
3.798368070632443,0,17,11.21928696486546,-1,34,0
3.6619666847201136,-3,17,11.122517700592796,-5,34,0
3.5837968692435687,-2,17,11.043984788109773,-7,34,0
3.531345352694916,-1,17,11.203570859328734,-15,34,0
3.549028035955762,-2,17,11.149098618274035,-1,34,0
3.3428131865241886,6,15,10.901816362423284,9,34,0
3.23703568098963,-2,15,10.798611021793496,6,34,0
3.249615361854384,2,15,10.935099450850915,12,34,0
3.3103474137920927,4,15,10.959854013626277,2,34,0
3.1394904045083503,-3,13,10.844371812142924,-4,34,0
3.1384709652950415,-4,13,10.786676967444608,-8,34,0
3.1496031496047263,-2,13,10.879724261211773,-13,34,0
3.220248437620926,-2,13,11.03740911627362,-7,34,0
3.1404458282224814,2,13,10.920000000000002,7,34,0
3.1199999999999988,4,13,10.86830253535482,11,34,0
3.1199999999999988,3,13,11.001818031580054,12,34,0
3.1726329759365504,1,13,11.104305471302558,4,35,0
3.1071530377501513,-1,13,11.104305471302558,-1,35,0
3.147316317118444,0,13,11.074944695121507,-8,35,0
3.1358571396031407,-4,13,11.105025889208905,-13,35,0
3.1358571396031407,-5,13,11.154263758760594,-9,35,0
3.059150208799822,0,11,11.06130191252368,-1,34,0
3.0066592756745814,2,11,10.932977636490437,11,34,0
2.9930586362448692,3,11,10.990614177560781,13,34,0
2.9930586362448692,2,11,11.052619598991,5,34,0
2.9518807563992135,0,11,11.052619598990999,-1,34,0
2.95465734053883,-3,11,10.95169393290371,-9,34,0
2.9621613730517775,-1,11,10.979417106568091,-9,34,0
2.9778515745416185,-1,11,11.121942276419169,-9,34,0
2.977851574541618,0,11,11.092790451459903,-1,34,0
2.9621613730517775,1,11,10.95744495765322,12,34,0
2.9732137494637025,0,11,10.976046647131197,10,34,0
3.004263636900065,5,11,11.047823315024548,6,34,0
3.004263636900065,0,11,11.047823315024548,0,34,0
3.058365576578443,2,11,10.928787672930605,-4,34,0
3.1079897039726516,-1,11,10.917582149908467,-10,34,0
3.182766092567908,-9,11,11.130929880293023,-14,34,0
3.2435166101008313,-1,12,11.159946236429635,-1,34,0
3.2435166101008313,1,12,10.960583926050655,9,34,0
3.228869771297692,3,12,10.961678703556311,13,34,0
3.3075066137500024,7,12,11.104953849521396,9,34,0
3.3075066137500024,0,12,11.104953849521394,0,34,0
3.2982419559516853,-4,12,11.033838860523565,-6,34,0
3.3241540277189308,-4,12,11.005380502281598,-10,34,0
3.4234485537247386,-3,12,11.286735577659291,-16,34,0
3.4037626239207706,7,12,11.234660653531106,4,34,0
3.425551050561063,-4,12,11.080361004949252,7,34,0
3.4495796845412934,7,12,11.045288588352955,10,34,0
3.6241412775994264,4,14,11.23966191662365,12,34,0
3.647958333095377,-3,14,11.239661916623648,-1,34,0
3.772585320440081,3,14,11.19787479837134,-3,34,0
3.829412487575606,-3,14,11.16422858956229,-6,34,0
3.8977429366237057,-10,14,11.338871196022998,-19,34,0
3.9308523248781557,1,14,11.391242250079664,-2,34,0
3.8977429366237057,2,14,11.28177291031866,6,34,0
3.893584466786357,1,14,11.25033332839521,11,34,0
3.893584466786357,1,14,11.335342959081565,9,34,0
3.9700881602301985,6,14,11.356830543774086,3,34,0
3.9436531287627195,-1,14,11.292138858515688,-2,34,0
3.9242833740697165,-5,14,11.20937107959229,-9,34,0
3.932886980323743,-2,14,11.377679904092926,-16,34,0
4.0031987210229785,-4,14,11.615506876585282,-6,36,0
4.031128874149274,0,14,11.507284649299331,6,36,0
4.04890108547986,2,14,11.40570032922135,14,36,0
4.08416454124953,8,14,11.511107679107164,11,36,0
4.04890108547986,-3,14,11.532579936857148,2,36,0
3.9899874686520005,0,14,11.365720390718748,-5,35,0
3.950949253027681,-2,14,11.161433599677059,-8,35,0
3.9073776372395868,1,14,11.192157968863736,-10,35,0
4.057634779030758,-8,16,11.460959820189581,-9,35,0
4.057634779030758,3,16,11.486357124867745,3,35,0
4.01018702805742,3,16,11.299628312471166,11,35,0
4.016764867402624,5,16,11.347616489818467,13,35,0
4.108332995267061,3,16,11.420840599535572,4,35,0
4.159278783635452,-1,16,11.398245479020005,0,35,0
4.208752784376863,0,16,11.287532945688355,-7,35,0
4.21620682604637,-7,16,11.301398143592674,-11,35,0
4.228285704632555,-1,16,11.535961164983176,-12,35,0
4.228285704632555,0,16,11.561124512779884,2,35,0
4.21620682604637,1,16,11.376396617558653,11,35,0
4.21620682604637,0,16,11.431955213348244,13,35,0
4.261455150532502,7,16,11.658902178164118,9,37,0
4.3829214001622265,3,16,11.784735890124988,0,37,0
4.39745380873978,-4,16,11.715016005110707,-9,37,0
4.34644682470636,-4,16,11.655316383522154,-8,37,0
4.315738638981746,-1,16,11.785771082114229,-13,37,0
4.371910337598427,-6,16,11.785771082114229,-3,37,0
4.324997109825626,3,16,11.590012942184316,9,37,0
4.2640825507956555,5,16,11.573573346205567,13,37,0
4.302975714549179,4,16,11.721774609674084,8,37,0
4.302975714549179,0,16,11.698700782565554,-1,37,0
4.354721575485626,2,16,11.615937327654622,-3,37,0
4.369027351711132,-4,16,11.567194992737003,-7,37,0
4.4671691259678115,-10,16,11.80211845390479,-20,37,0
4.614108798023733,-3,18,11.832565233287331,-2,37,0
4.724447057593087,3,18,11.790233246208494,7,37,0
4.704423450328425,8,18,11.753484589686586,12,37,0
4.744723384982521,5,18,11.892871814662763,13,37,0
4.714064064053435,1,18,11.845150906594649,0,37,0
4.672001712328455,-5,18,11.745705598217588,-4,37,0
4.590599089443555,-7,18,11.63486140871476,-9,37,0
4.582750265942931,0,18,11.781765572273114,-15,37,0
4.697914430893776,-4,18,11.913018089468343,-4,37,0
4.68448503039555,6,18,11.807201192492656,8,37,0
4.68960552712059,5,18,11.737870334945772,12,37,0
4.710371535240083,1,18,11.891442301083583,12,37,0
4.765878722754073,2,18,11.999349982394882,2,37,0
4.689093729069617,-4,18,11.923237815291616,-6,37,0
4.631414470763766,-2,18,11.813365312221574,-8,37,0
4.632234881782227,0,18,11.913437790998868,-13,37,0
4.626186334336306,1,18,11.9606187130934,-4,37,0
4.554953347730359,-1,18,11.706476839766951,7,36,0
4.47843722742655,1,18,11.553510289085306,10,36,0
4.462465686142583,3,18,11.6452393706613,9,36,0
4.462465686142583,1,18,11.6452393706613,1,36,0
4.462465686142583,-3,18,11.567627241573785,-2,36,0
4.462465686142583,0,18,11.506937038152252,-10,36,0
4.480892768188056,-4,18,11.568249651524644,-8,36,0
4.5361216914893285,-2,18,11.750217019272453,-9,36,0
4.401863241855658,3,18,11.615575749828333,4,36,0
4.343685071457187,3,18,11.408926329852429,13,36,0
4.349896550494046,2,18,11.520138888051655,13,36,0
4.407312106034697,3,18,11.685615088646385,4,36,0
4.407312106034697,0,18,11.754165219189323,-1,36,0
4.363668181702179,-4,18,11.673833988883002,-8,36,0
4.312771730569563,-1,18,11.655470818461177,-9,36,0
4.389259618660079,-7,18,11.839341197887656,-14,36,0
4.389259618660079,3,18,11.756802286336194,1,36,0
4.405678154382136,-1,18,11.581726986939382,8,36,0
4.3983633319679285,3,18,11.590271782835808,13,36,0
4.405859734489967,4,18,11.657718473183335,6,36,0
4.3863424398922595,1,18,11.555708545995781,1,36,0
4.251305681787654,-2,17,11.347175860098405,-6,35,0
4.235138722639437,-5,17,11.291696063922371,-9,35,0
4.315970342808211,-3,17,11.505059756472365,-14,35,0
4.32203655699486,4,17,11.577374486471449,0,35,0
4.292738053969754,-4,17,11.417898230410009,8,35,0
4.260704167153593,7,17,11.38913517348881,11,35,0
4.317406628984581,4,17,11.531261856362471,11,35,0
4.372459262245909,2,17,11.53126185636247,0,35,0
4.372459262245909,-2,17,11.470588476621414,-4,35,0
4.277195342745058,-8,17,11.37850605308096,-10,35,0
4.271018613867189,0,17,11.575508628133797,-16,35,0
4.271018613867189,-4,17,11.604412953699981,-2,35,0
4.12310562561766,1,16,11.405261943506602,7,35,0
4.029888335921977,9,16,11.288507430125563,11,35,0
4.066497264231221,1,16,11.442464769445436,13,35,0
3.9874302501736643,-2,16,11.420402794998079,-1,35,0
3.884584919911005,1,16,11.34195750300626,-3,35,0
3.893584466786357,-6,16,11.265682402766377,-9,35,0
3.893584466786357,-2,16,11.449786024201504,-15,35,0
3.893584466786357,0,16,11.532233088175072,-3,35,0
3.7085846356797623,2,14,11.350770898930168,6,34,0
3.7085846356797623,0,14,11.255380935357097,10,34,0
3.699999999999999,4,14,11.348233342683786,12,34,0
3.68586489171809,1,14,11.325740593886126,2,34,0
3.625961941333639,0,14,11.194445051006326,-3,34,0
3.6351616195157006,0,14,11.119784170567344,-7,34,0
3.633235472688219,-2,14,11.196088602721932,-12,34,0
3.756647441536135,-7,14,11.34726398741124,-8,34,0
3.7643060449437438,5,14,11.234874276110078,7,34,0
3.7672801860228007,3,14,11.173343277640763,11,34,0
3.901999487442305,6,14,11.30974800780283,12,34,0
4.084115571332427,2,16,11.479181155465747,5,35,0
4.106044325138248,-4,16,11.570669816393519,-2,35,0
4.113198268987287,-3,16,11.53082824431966,-9,35,0
4.120242711297479,0,16,11.549961038895328,-11,35,0
4.137438821299962,-6,16,11.670475568716128,-10,35,0
4.137438821299962,-1,16,11.562767834735766,1,35,0
4.127178212774436,5,16,11.399719294789676,12,35,0
4.161778465992631,4,16,11.503668979938531,13,35,0
4.161778465992631,-1,16,11.503668979938531,1,35,0
4.0767143633077865,-3,16,11.386676424664048,-1,35,0
3.9950469333913943,-2,16,11.189280584559492,-9,35,0
4.04,-3,16,11.193301568348813,-10,35,0
4.113830331941268,-1,16,11.457207338614413,-10,35,0
4.068857333453707,2,16,11.513487742643408,0,35,0
4.084115571332426,0,16,11.3705760628035,11,35,0
4.051863768687195,4,16,11.372176572670687,13,35,0
4.077057762651884,3,16,11.45008296913171,5,35,0
4.054824287191741,-2,16,11.4103286543377,-1,35,0
4.013028781357042,0,16,11.287586101554224,-4,35,0
4.015768917654499,-4,16,11.241067564960188,-9,35,0
4.015768917654499,0,16,11.442027792310242,-13,35,0
3.9366991249014696,3,16,11.392910076007798,2,35,0
3.942385064906773,2,16,11.198285583070293,10,35,0
3.858756276314946,-1,16,11.200160713132645,11,35,0
3.9496835316262997,5,16,11.425165206683008,9,35,0
4.009788024322486,1,16,11.450781632709619,-1,35,0
3.9267798512267036,-3,16,11.365368449812788,-5,35,0
3.86393581727233,-3,16,11.272976536833562,-9,35,0
3.8814430306266265,-5,16,11.4564392373896,-16,35,0
4.016416313083095,-4,17,11.513140318783575,-3,35,0
4.016416313083095,1,17,11.36290455825446,6,35,0
3.932632705961747,6,17,11.267936812034401,10,35,0
3.932632705961747,4,17,11.401754250991381,14,35,0
4.054429676292339,5,17,11.42574286425176,2,35,0
4.066890704211266,-5,17,11.386465650060162,-4,35,0
4.05442967629234,-1,17,11.326853049280725,-6,35,0
4.034848200366403,-3,17,11.42490262540561,-15,35,0
4.129939466868734,-7,17,11.50825790465264,-7,35,0
4.079215610874228,6,17,11.337036649848145,7,35,0
4.0587682860690615,3,17,11.225613568976977,14,35,0
4.070823012610595,3,17,11.371912767868032,10,35,0
4.124318125460259,1,17,11.47965156265642,2,35,0
4.124318125460259,-3,17,11.42574286425176,-6,35,0
4.1173292314314605,-2,17,11.356055653262713,-9,35,0
4.121601630434461,-2,17,11.43776201885666,-10,35,0
4.277803174527787,-6,17,11.658627706552775,-9,36,0
4.199238026118547,4,17,11.601534381279057,3,36,0
4.21146055424956,1,17,11.508761879542037,13,36,0
4.291200298284853,9,17,11.615506876585282,14,36,0
4.187648504829411,-4,17,11.636992738676085,2,36,0
4.052110561176732,3,16,11.533273602928185,0,35,0
3.999199919983995,-3,16,11.347316863470413,-9,35,0
4.029689814365371,2,16,11.317614589656252,-7,35,0
4.056402346907912,-8,16,11.509022547549382,-13,35,0
4.077695427566901,-1,16,11.534730165894647,0,35,0
4.021193852576619,4,16,11.388151737661383,12,35,0
4.084115571332427,6,16,11.48008710768346,14,35,0
4.084115571332427,-1,16,11.48008710768346,1,35,0
4.071805496336976,-2,16,11.48008710768346,1,35,0
4.074113400483598,-3,16,11.392787191903484,-7,35,0
4.124318125460255,-4,16,11.398684134583254,-9,35,0
4.102877039346901,1,16,11.557871776412817,-12,35,0
4.037276309592893,1,16,11.45092136030983,2,35,0
4.0181587823280465,6,16,11.189727431890375,10,35,0
4.018158782328047,-7,16,11.172126028648263,9,35,0
4.019999999999998,5,16,11.268380540255105,7,35,0
4.008191612186225,1,16,11.268380540255105,-1,35,0
4.064480286580314,3,16,11.236529713394608,-3,35,0
4.0978530964396445,-1,16,11.207872233390242,-6,35,0
4.116114672843795,-8,16,11.421803710447838,-18,35,0
4.116114672843795,1,16,11.395174417269791,1,35,0
4.239103678845328,-4,16,11.296016997154354,6,35,0
4.233013111248302,6,16,11.283634166349064,8,35,0
4.267317658670373,5,16,11.368306822038189,13,35,0
4.2418863728298986,1,16,11.268788754786378,0,34,0
4.125093938324315,-5,16,11.122607607930796,-4,34,0
4.084164541249529,0,16,11.025806092980233,-8,34,0
4.080980274394869,0,16,11.140987388916656,-12,34,0
4.080980274394869,-4,16,11.167470617825684,-4,34,0
3.9267798512267036,5,16,10.93112985925975,9,34,0
3.7983680706324416,0,16,10.81214132353069,9,34,0
3.796261318718721,0,16,10.885752155914625,7,34,0
3.787558580405063,-3,16,10.827446605733044,0,34,0
3.627671429443411,4,14,10.703270528207723,-1,34,0
3.6022770576400704,-2,14,10.60897733054417,-6,34,0
3.5902646142032473,0,14,10.674755266515483,-12,34,0
3.5911558028022124,1,14,10.741042779916668,-4,34,0
3.4108063562741275,-2,14,10.494265100520382,7,34,0
3.4000588230205637,2,14,10.386606760631693,6,34,0
3.39788169305525,-1,14,10.458221646149978,10,34,0
3.3550558862707494,1,14,10.433963772220027,3,34,0
3.2832301168209352,0,14,10.311236589274827,-2,32,0
3.2705351244100718,-1,14,10.237187113655782,-7,32,0
3.273896760742466,1,14,10.292055188347954,-11,32,0
3.309622334950015,-5,14,10.435401286007165,-8,32,0
3.1238437861071087,2,13,10.257017110251889,3,29,0
3.1010320862577356,-1,13,10.020059880060595,11,29,0
3.1176914536239813,7,13,10.157735968216535,14,29,0
3.0552250326285284,0,12,10.204724396082435,1,29,0
3.0704397079245824,-1,12,10.204724396082433,0,29,0
2.992256673482405,-3,12,10.053138813325914,-9,29,0
2.992256673482405,2,12,10.049955223780849,-8,29,0
2.96924232759807,-5,12,10.253272648281621,-11,29,0
2.9989331436362483,-2,12,10.253272648281621,-1,29,0
2.929095423505354,3,12,10.034440691936945,11,29,0
2.9391155132114144,0,12,10.071424924011499,12,29,0
2.8540497542965175,3,12,10.139999999999997,6,29,0
2.8861739379323605,4,12,10.213637941497632,1,30,0
2.874995652170627,-4,12,10.107106410837872,-8,30,0
2.876386622135486,0,12,10.08422530490072,-8,30,0
2.803497815230112,-3,12,10.254930521461372,-12,30,0
2.7492544443903326,1,12,10.172040110027094,1,30,0
2.7492544443903326,-2,12,10.017983829094554,7,30,0
2.716541919426242,3,12,10.02893812923382,11,30,0
2.6563885257996436,0,12,10.146211115485421,7,30,0
2.6671332925071423,2,12,10.103148024254619,-2,30,0
2.685144316419508,1,12,10.031948963187562,-3,30,0
2.596073958884841,-2,12,9.966664437012014,-7,30,0
2.6257189491642077,-6,12,10.268709753420826,-18,32,0
2.744376067524275,-2,12,10.332473082471592,0,32,0
2.8792360097775944,0,12,10.235702223101256,7,32,0
2.7681040442873535,3,12,10.16639562480233,9,32,0
2.7712812921102032,5,12,10.289820212229172,13,32,0
2.8914356295791883,6,14,10.314339532902723,2,32,0
2.8142494558940574,-5,14,10.252199763953099,-4,32,0
2.8749956521706257,2,14,10.196156138467082,-6,32,0
2.88693609212258,-6,14,10.402095942645404,-18,32,0
2.8892213483912923,1,14,10.504494276260996,-1,32,0
2.8400000000000003,0,14,10.329085148259743,8,32,0
2.8380274840106807,0,14,10.287390339634248,8,32,0
2.8380274840106807,2,14,10.427578817731371,12,32,0
2.868030683238937,2,14,10.512544886943408,1,32,0
2.8594405047141658,-2,14,10.512544886943408,-4,32,0
2.901654700339103,3,14,10.458852709547063,-6,32,0
2.901654700339103,-4,14,10.562499704142006,-14,32,0
2.9842251925751184,-5,14,10.703569498069328,-5,32,0
3.0284649576972162,1,14,10.636258740741502,5,32,0
3.0284649576972167,3,14,10.598113039593414,9,32,0
3.02364019023428,1,14,10.69708371473272,12,32,0
3.039736830714134,2,14,10.715148155765277,0,32,0
3.0350617786134113,-2,14,10.624142318323866,-3,32,0
3.0318970958790787,-1,14,10.52456174859552,-6,32,0
3.0334139183434896,0,14,10.565244909608106,-9,32,0
3.0371697351317053,-1,14,10.79446154284687,-10,32,0
3.016222803441416,-1,14,10.79446154284687,2,32,0
3.016222803441416,1,14,10.671925786848405,11,32,0
2.9970652311886687,3,14,10.755910003342352,14,32,0
3.0284649576972162,4,14,10.78,4,32,0
3.0284649576972167,-1,14,10.805850267332044,1,32,0
3.0834396378071025,1,14,10.675373529764663,-8,32,0
3.0834396378071025,-5,14,10.660281422176432,-9,32,0
3.112876483254678,-4,14,10.81265924738221,-11,32,0
3.133304964410581,0,14,10.787492757819122,0,32,0
3.085708994704459,1,14,10.58761540669097,9,32,0
3.0777264335869727,2,14,10.622918619663809,12,32,0
3.1890437438203936,7,14,10.765221781273251,7,32,0
3.2150272160589872,-3,14,10.790810905580729,0,32,0
3.147316317118445,-1,14,10.663957989414625,-6,32,0
3.157530680769387,0,14,10.624895293601721,-9,32,0
3.1536645351083252,-2,14,10.789420744414409,-13,32,0
3.249615361854386,-6,14,10.814804667676619,-1,32,0
3.316865990660461,1,14,10.724271537032244,7,32,0
3.29848450049413,6,14,10.70366292443853,10,32,0
3.3778691508109056,4,14,10.869701007847455,12,32,0
3.4525353003264136,0,14,10.893319053438214,-1,32,0
3.4437769962644227,-4,14,10.858894971404778,-5,32,0
3.4290523472236467,1,14,10.813399095566577,-6,32,0
3.428352373954578,-3,14,10.95410425365762,-15,32,0
3.5384177254812617,-7,15,10.8944940222114,-3,32,0
3.4713109915419547,3,15,10.714774845977868,5,32,0
3.4024109099284296,0,15,10.612992038063535,9,32,0
3.427185434142717,10,15,10.77374586668908,15,32,0
3.4271854341427175,-4,15,10.795202638209252,-1,32,0
3.310347413792093,2,14,10.730591782376214,-2,32,0
3.3251165393110664,0,14,10.6612569615407,-7,32,0
3.3035738223929543,-6,14,10.776288786033902,-15,32,0
3.2921725349683606,3,14,10.75033022748604,-2,32,0
3.2924155266308657,1,14,10.59224244435521,5,32,0
3.301454225034781,-3,14,10.53671675618169,8,32,0
3.301454225034781,3,14,10.615856065339242,10,32,0
3.440988230145519,6,15,10.664876933185864,5,32,0
3.485340729397917,-2,15,10.641353297395966,-2,32,0
3.4928498393145957,-3,15,10.579243829310297,-8,32,0
3.4525932282850795,-1,15,10.612464369787068,-11,32,0
3.594440151122286,-8,15,10.796740248797322,-11,32,0
3.549422488236643,4,15,10.718376742772199,5,32,0
3.5147688401941872,1,15,10.61425456638383,11,32,0
3.511409973215886,2,15,10.689228222841907,11,32,0
3.5147688401941872,-1,15,10.708874824182043,2,32,0
3.5476189197826775,5,15,10.728448163644169,0,32,0
3.5497042130295853,-3,15,10.69758851330523,-7,32,0
3.558876227125637,-3,15,10.718880538563717,-9,32,0
3.627450895601484,-3,15,10.865081684000355,-10,32,0
3.627450895601484,3,15,10.723805294763608,2,32,0
3.6111494015063936,4,15,10.483587172337527,13,32,0
3.637636595373428,2,15,10.566286007864827,11,32,0
3.6565010597564465,-1,15,10.62308806327049,1,32,0
3.6031097679643325,-1,15,10.62308806327049,1,32,0
3.6891733491393452,5,15,10.503123344986482,-5,32,0
3.6276714294434105,-7,15,10.48236614510293,-11,32,0
3.699999999999999,-5,15,10.717107818810073,-13,32,0
3.7247281780017167,0,15,10.772650555921697,0,32,0
3.6824448400485217,4,15,10.612897813509747,11,32,0
3.668023991197441,-1,15,10.619322012256715,11,32,0
3.673091341091316,4,15,10.778144552751183,9,33,0
3.64417343165772,3,15,10.778144552751183,-1,33,0
3.7472122971617186,2,15,10.674755266515483,-5,33,0
3.7759237280432445,-3,15,10.620150658065073,-10,33,0
3.815756805667783,-8,15,10.888544438996425,-16,33,0
3.946694819719407,-3,15,11.004162848667772,-1,33,0
3.8948684188300877,3,15,10.874281585465775,9,33,0
3.9568169025114117,-3,15,10.818964830333815,11,33,0
3.957221247289569,6,15,10.904696236026016,8,33,0
