S1_Std,S1_Diff,S1_Waveform,S2_Std,S2_Diff,S2_Waveform,Label
3.481436485,6,15,10.77961038,8,35,0
3.435112807,1,15,10.7228541,9,35,0
3.455777771,4,15,10.85357084,11,35,0
3.433307443,-3,15,10.7907553,-2,35,0
3.433307443,-2,15,10.73202684,-4,35,0
3.435112807,3,15,10.69945793,-5,35,0
3.40916412,-2,15,10.85180169,-14,35,0
3.430976537,-3,15,10.96678622,-5,35,0
3.224220836,4,15,10.71328148,9,34,0
3.287795614,5,15,10.62873464,12,34,0
3.330105103,0,15,10.77857133,10,34,0
3.330105103,0,15,10.77857133,0,34,0
3.371409201,0,15,10.7387895,-3,34,0
3.3717058,-5,15,10.68271501,-9,34,0
3.389631248,-2,15,10.77265056,-11,34,0
3.446737588,-2,15,10.89587078,-6,34,0
3.47424812,1,15,10.73096454,4,34,0
3.371409201,1,15,10.54961611,10,34,0
3.37194306,4,15,10.65645344,13,34,0
3.37194306,3,15,10.75776929,5,34,0
3.436335257,2,15,10.83551568,0,34,0
3.464621191,-3,15,10.7874186,-11,34,0
3.453983208,-5,15,10.81260376,-11,34,0
3.509985755,-3,15,11.03523448,-11,34,0
3.559550533,-1,15,11.00879648,3,34,0
3.553083168,6,15,10.87428159,13,34,0
3.549028036,0,15,10.95671484,11,34,0
3.578211844,3,15,11.0219599,4,34,0
3.542654372,-3,15,10.98036429,-3,34,0
3.546491224,-2,15,10.88464974,-8,34,0
3.542936635,0,15,10.88220566,-6,34,0
3.568136769,-2,15,11.06699598,-12,34,0
3.508902962,-1,15,11.06699598,0,34,0
3.39411255,5,15,10.87347231,11,34,0
3.377632307,0,15,10.92192291,12,34,0
3.430685063,4,15,11.02208692,6,34,0
3.471080523,3,16,10.9949261,1,34,0
3.471080523,-2,16,10.9109303,-5,34,0
3.505481422,-9,16,10.85917124,-11,34,0
3.586697645,-2,16,11.12467528,-16,34,0
3.805259518,-4,17,11.18184242,0,34,0
3.757871738,9,17,11.04972398,10,34,0
3.748332963,-1,17,11.03320443,10,34,0
3.83191858,7,17,11.1821286,11,34,0
3.910191811,1,17,11.15865583,-1,34,0
3.984971769,-1,17,11.10394524,-4,34,0
3.95580586,-5,17,11.05023077,-8,34,0
3.925353487,-1,17,11.2232081,-15,34,0
3.994446144,-5,17,11.2232081,-1,34,0
3.827531842,3,17,11.06706827,6,34,0
3.811351466,3,17,11.00852397,10,34,0
3.834631664,3,17,11.13193604,11,34,0
3.834631664,-1,17,11.15363618,1,34,0
3.861657675,1,17,11.15363618,-3,34,0
3.86786763,0,17,11.12764126,-8,34,0
3.888444419,-6,17,11.26026643,-14,34,0
3.965047288,-3,17,11.3375306,-4,34,0
3.991240409,0,17,11.13676793,6,33,0
4.06939799,0,17,11.06094029,9,33,0
4.026114752,4,17,11.13775561,11,33,0
4.006045432,5,17,11.13775561,3,33,0
4.006045432,1,17,11.13775561,0,33,0
3.959797975,-3,17,11.06094029,-10,33,0
3.959797975,-2,17,11.15462236,-13,33,0
4.0501358,7,17,11.21679098,-3,33,0
3.998049524,-7,17,11.09479157,2,33,0
3.97114593,-1,17,10.96833625,8,33,0
3.953782999,1,17,11.01491716,11,33,0
3.953782999,2,17,11.01491716,3,33,0
3.906968134,-1,17,10.89616446,0,33,0
3.801105102,0,17,10.68082394,-7,32,0
3.769562309,0,17,10.70506422,-11,32,0
3.99219238,-10,17,10.96729684,-11,33,0
4.016217126,4,17,10.90973877,3,33,0
3.944616585,5,17,10.73962755,12,33,0
3.991240409,-4,17,10.783339,10,33,0
4.008041916,7,17,10.80251822,4,33,0
3.99219238,0,17,10.73359213,0,33,0
4.008790341,0,17,10.64422848,-6,33,0
4.010436385,-1,17,10.64332655,-8,33,0
4.006045432,-1,17,10.76557476,-9,33,0
3.981205847,-2,17,10.69169771,0,33,0
3.961009972,-2,17,10.49092942,9,33,0
4.009987531,8,17,10.56751626,13,33,0
4.056796766,0,17,10.77248346,7,35,0
4.014423994,-3,17,10.74819055,-4,35,0
3.904919974,2,16,10.60196208,-5,35,0
3.832544846,-2,16,10.51064223,-8,35,0
3.878607998,-7,16,10.6683832,-13,35,0
3.832544846,2,16,10.55621144,0,35,0
3.593828043,2,16,10.31311786,7,35,0
3.678260458,-4,16,10.26535922,8,35,0
3.677444765,7,16,10.34835253,8,35,0
3.595775299,-1,16,10.24062498,-1,35,0
3.488552709,-3,16,10.11393099,-3,35,0
3.500914166,-4,16,10.03585572,-6,35,0
3.599111001,0,16,10.31395172,-17,35,0
3.693237063,0,16,10.3706509,1,35,0
3.651629773,3,16,10.23437345,7,35,0
3.712088361,8,16,10.17347532,13,35,0
3.775764823,0,16,10.35961389,10,35,0
3.799157801,0,16,10.46472169,2,35,0
3.979949748,4,18,10.44147499,-4,35,0
3.963281469,-6,18,10.39430613,-5,35,0
3.927543762,-2,18,10.47169518,-16,35,0
3.91591624,-1,18,10.52138774,-5,35,0
3.891991778,-4,18,10.37113301,4,35,0
3.834370874,2,18,10.28015564,7,35,0
3.760904147,2,18,10.35034299,12,35,0
3.869108424,7,18,10.41385615,4,35,0
3.915150061,-1,18,10.3696673,-2,35,0
3.863469943,-6,18,10.22203502,-8,35,0
3.871743793,-2,18,10.33535679,-14,35,0
3.872415267,3,18,10.45531444,-4,35,0
3.768288736,-3,18,10.48093507,1,35,0
3.771949098,1,18,10.36887651,12,35,0
3.768288736,1,18,10.41777327,10,35,0
3.854555746,6,18,10.49169195,4,35,0
3.865798753,-3,18,10.49169195,-1,35,0
3.882730998,0,18,10.41352966,-5,35,0
3.914894635,1,18,10.41660213,-10,35,0
4.016217126,-10,18,10.46596388,-6,35,0
3.790725524,6,15,10.24751677,0,34,0
3.726714371,-2,15,10.02045907,8,34,0
3.726714371,2,15,10.07777753,11,34,0
3.67483333,2,15,10.18697207,4,34,0
3.690203246,2,15,10.2306207,0,34,0
3.675649602,-3,15,10.15537296,-7,34,0
3.666933324,-2,15,10.1506453,-9,34,0
3.773592453,-5,15,10.40338406,-13,34,0
3.822302971,2,15,10.48284313,1,34,0
3.831657605,2,15,10.37514337,9,34,0
3.807571404,1,15,10.38285125,11,34,0
3.749986667,2,15,10.4228403,7,34,0
3.777883005,5,15,10.31156632,1,33,0
3.806573262,-2,15,10.21402957,-5,33,0
3.771259736,-3,15,10.15684991,-8,33,0
3.762977544,-1,15,10.35181144,-14,33,0
3.70302579,-2,15,10.35181144,1,33,0
3.681086796,4,15,10.20135285,9,33,0
3.694103409,1,15,10.18430165,9,33,0
3.643569678,1,15,10.41429786,11,33,0
3.66938687,0,15,10.50059046,-2,33,0
3.673908001,-2,15,10.485819,-6,33,0
3.667642294,1,15,10.46061184,-6,33,0
3.579720659,-6,15,10.66,-16,33,0
3.45490955,2,15,10.57007096,0,32,0
3.417367408,-4,15,10.39632627,5,32,0
3.372891934,7,15,10.30727898,11,32,0
3.337603931,1,15,10.43932948,11,32,0
3.288829579,-2,15,10.39309386,-1,32,0
3.239506135,-1,15,10.22015655,-4,32,0
3.028200786,2,13,10.09572187,-6,32,0
3.019205193,-3,13,10.20392082,-14,32,0
3.087005021,-3,13,10.55264896,-9,37,0
3.10638053,2,13,10.48139304,10,37,0
3.060980235,0,13,10.38323649,11,37,0
3.058692531,5,13,10.50188554,12,37,0
3.117948043,2,13,10.55857945,0,37,0
2.992590851,-3,12,10.49617073,-2,37,0
2.913142633,1,12,10.4017114,-6,37,0
2.912662013,-2,12,10.44545834,-11,37,0
2.912662013,-3,12,10.5456152,-8,37,0
2.913142633,2,12,10.46777913,3,37,0
2.934007498,-3,12,10.27246806,11,37,0
2.93257566,5,12,10.39278596,13,37,0
2.950322016,1,12,10.53633712,3,37,0
2.870540019,0,12,10.53633712,-3,37,0
2.857201428,-1,12,10.453784,-7,37,0
2.8371817,-2,12,10.4560987,-10,37,0
2.895582843,-5,12,10.66215738,-10,37,0
2.895582843,-1,12,10.7808905,0,37,0
2.901310049,5,12,10.68758158,13,37,0
2.926841301,5,12,10.78517501,13,37,0
2.968097033,0,12,10.8853112,3,37,0
3.191300675,5,15,10.93400201,1,37,0
3.244996148,-3,15,10.8203512,-9,37,0
3.253367486,-7,15,10.80386968,-9,37,0
3.266557821,-1,15,11.00852397,-12,37,0
3.125955854,3,15,10.92805564,2,37,0
3.052933016,-1,15,10.72052238,10,37,0
3.029257335,2,15,10.71785426,10,37,0
3.029785471,1,15,10.83928042,6,37,0
3.143310357,4,15,10.88376773,1,37,0
3.115381197,-2,15,10.79511,-6,37,0
3.091666217,-5,15,10.74915811,-9,37,0
3.2052457,-5,15,10.97043299,-14,37,0
3.389926253,-2,16,11.08880517,-3,37,0
3.5,1,16,11.02471768,8,37,0
3.515053342,4,16,11.00743385,10,37,0
3.504283094,4,16,11.08911178,11,37,0
3.488495378,-4,16,10.93617849,-2,36,0
3.539717503,8,16,10.81857662,-1,36,0
3.539547994,-7,16,10.76542614,-6,36,0
3.537004382,-1,16,10.94232151,-16,36,0
3.585749573,-3,16,10.99636304,-2,36,0
3.632134359,1,16,10.89265808,7,36,0
3.568977445,2,16,10.81820688,9,36,0
3.581117144,5,16,10.94356432,12,36,0
3.682879308,4,16,10.99352537,3,36,0
3.699783777,-4,16,10.95452418,-5,36,0
3.715319636,-5,16,10.90203651,-8,36,0
3.723492984,0,16,11.00954132,-13,36,0
3.733309524,0,16,11.05623806,-3,36,0
3.697350403,0,16,10.74400298,4,33,0
3.682390528,2,16,10.62685278,10,33,0
3.667206021,1,16,10.73171002,11,33,0
3.650150682,0,16,10.73171002,1,33,0
3.59866642,1,16,10.69250205,-2,33,0
3.59866642,0,16,10.60837405,-8,33,0
3.586697645,0,16,10.64377752,-9,33,0
3.600222215,-4,16,10.73312629,-5,33,0
3.585749573,2,16,10.58113415,4,33,0
3.593104507,2,16,10.4444435,11,33,0
3.567688327,0,16,10.61284128,11,33,0
3.595830919,2,16,10.68456831,1,33,0
3.584633873,-2,16,10.63496121,-2,33,0
3.567408023,-1,16,10.5408918,-7,33,0
3.561404217,0,16,10.54174559,-10,33,0
3.614470916,-5,16,10.70894953,-10,33,0
3.538869876,3,16,10.68129206,0,33,0
3.423974299,3,16,10.46749254,11,33,0
3.417601498,-2,16,10.51248781,11,33,0
3.400529371,3,16,10.55516935,5,33,0
3.365947118,-2,16,10.48816476,-2,33,0
3.140764238,-1,14,10.3,-7,33,0
3.050835951,-2,14,10.28093381,-7,33,0
3.102515109,-2,14,10.55454405,-14,33,0
3.087782376,4,14,10.55454405,2,33,0
3.087782376,1,14,10.42629368,9,33,0
3.091989651,-2,14,10.42965004,10,33,0
3.128514024,5,14,10.53975332,9,33,0
3.128514024,-1,14,10.51682462,-1,33,0
3.001666204,0,14,10.38082848,-5,33,0
2.932302849,-5,14,10.32327467,-8,33,0
2.961418579,-1,14,10.56598315,-15,33,0
2.877498914,3,14,10.53886142,2,33,0
2.714774392,-2,13,10.29075313,6,32,0
2.573402417,3,12,10.19374318,10,32,0
2.720955714,6,12,10.34841051,11,32,0
3.091924967,4,16,10.4726119,3,33,0
3.129281068,-6,16,10.48953764,-6,33,0
3.138407239,-10,16,10.43693442,-10,33,0
3.195058685,1,16,10.62894162,-14,33,0
3.176413071,5,16,10.68576623,-2,33,0
3.176413071,-6,16,10.53671676,6,33,0
3.207802986,0,16,10.4556205,9,33,0
3.188479261,6,16,10.54134716,11,33,0
3.231098884,4,16,10.56388186,3,33,0
3.119230674,-2,16,10.45033971,-3,33,0
3.099741925,-3,16,10.36486372,-8,33,0
3.174901573,-5,16,10.50493217,-14,33,0
3.282925525,-1,17,10.69656019,-6,34,0
3.3,3,17,10.67138229,5,34,0
3.28901201,2,17,10.58043477,11,34,0
3.328663395,5,17,10.68945275,13,34,0
3.347596152,-1,17,10.71029411,1,34,0
3.365947118,0,17,10.68945275,-1,34,0
3.365947118,-1,17,10.6031882,-9,34,0
3.36505572,-3,17,10.64706532,-9,34,0
3.390811112,-2,17,10.90007339,-11,34,0
3.407345007,0,17,10.9225638,5,34,0
3.408460063,4,17,10.86948021,11,34,0
3.408460063,1,17,10.99347079,14,34,0
3.492849839,4,17,10.99347079,2,34,0
3.492849839,-2,17,10.94255912,-1,34,0
3.486488204,-3,17,10.8092738,-8,34,0
3.490615991,-2,17,10.80349943,-11,34,0
3.636976766,-6,18,11.01252015,-10,34,0
3.601610751,5,18,11.03768092,1,34,0
3.59894429,3,18,10.87382178,13,34,0
3.59894429,1,18,10.9635943,12,34,0
3.619060652,1,18,11.05976492,3,34,0
3.606937759,-1,18,11.016061,-2,34,0
3.606937759,-1,18,10.93744029,-5,34,0
3.607991131,0,18,10.92119041,-6,34,0
3.644392954,-5,18,11.10900536,-15,34,0
3.593104507,4,18,10.98180313,3,34,0
3.593104507,0,18,10.7895505,9,34,0
3.592269478,0,18,10.80231457,10,34,0
3.645325774,5,18,10.98988626,8,34,0
3.611094017,-4,18,10.96767979,-3,34,0
3.592269478,-1,18,10.87141205,-6,34,0
3.57233817,0,18,10.82766826,-6,34,0
3.57233817,-2,18,11.030068,-15,34,0
3.546491224,1,18,10.97633819,1,34,0
3.551056181,0,18,10.82125686,9,34,0
3.537004382,2,18,10.76418134,7,34,0
3.555277767,2,18,10.91054536,11,34,0
3.59494089,5,18,10.93451416,1,34,0
3.486488204,1,16,10.813769,-3,33,0
3.424908758,-8,16,10.73254863,-8,33,0
3.374077652,-4,16,10.89006887,-16,33,0
3.374077652,-1,16,10.9446608,-3,33,0
3.404761372,1,16,10.78422923,7,33,0
3.354101966,0,16,10.68885401,9,33,0
3.268026928,3,16,10.77433989,10,33,0
3.267353669,0,16,10.7929792,1,33,0
3.201562119,1,16,10.69908407,-3,33,0
3.178427284,-1,16,10.61010839,-8,33,0
3.23332646,-4,16,10.74176894,-12,33,0
3.157530681,6,16,10.7895505,-2,33,0
3.027143868,-2,16,10.56312454,5,33,0
2.994929048,2,16,10.40084612,11,33,0
2.993927187,0,16,10.52235715,10,33,0
2.961148426,0,16,10.54303562,0,33,0
2.947812748,0,16,10.48648654,-3,33,0
2.927182946,-2,16,10.38652974,-6,33,0
2.941020231,3,16,10.42220706,-9,33,0
2.93421199,-2,16,10.53876653,-7,33,0
2.899379244,-2,16,10.38901343,0,31,0
2.899379244,-2,16,10.22185893,11,31,0
2.920616373,1,16,10.28515435,11,31,0
2.981006541,7,16,10.35961389,6,31,0
2.920547894,-1,16,10.33489236,-2,31,0
2.878610776,-4,16,10.21402957,-7,31,0
2.88444102,-1,16,10.22303282,-11,31,0
2.976172038,-4,16,10.44099612,-11,31,0
2.855801114,1,14,10.41093656,1,31,0
2.842534081,3,14,10.2019606,11,31,0
2.841760018,1,14,10.26623592,13,31,0
2.906269086,5,14,10.30652221,3,31,0
2.906269086,-2,14,10.30652221,1,31,0
2.898275349,-3,14,10.22,-8,31,0
2.993593159,-5,14,10.20149009,-8,31,0
3.02654919,2,14,10.45554398,-13,31,0
3.02654919,-1,14,10.45554398,1,31,0
3.031105409,3,14,10.36341643,8,31,0
3.063592662,-2,14,10.36733331,11,31,0
3.111269837,7,14,10.47854952,9,31,0
3.184713488,3,14,10.45158361,1,31,0
3.184713488,-6,14,10.37737925,-6,31,0
3.186283101,0,14,10.34850714,-6,31,0
3.186283101,-1,14,10.53833004,-16,31,0
3.170173497,0,14,10.46135746,2,31,0
3.170173497,-1,14,10.29502793,7,31,0
3.166133288,2,14,10.27120246,7,31,0
3.186785214,2,14,10.4215354,11,31,0
3.206243908,1,14,10.4215354,0,31,0
3.161581883,3,14,10.37352399,-1,31,0
2.914035003,-6,12,10.2776651,-8,31,0
2.916779045,-2,12,10.39199692,-15,31,0
3.05450487,-6,14,10.5403795,-7,33,0
3.002399041,6,14,10.35569409,10,33,0
2.968433931,1,14,10.27314947,8,33,0
2.957093167,3,14,10.36193032,10,33,0
2.979932885,0,14,10.40223053,2,33,0
3.021522795,1,14,10.44605189,1,33,0
3.041315505,-1,14,10.4043068,-9,33,0
3.047950131,-4,14,10.48925164,-13,33,0
3.080519437,-4,14,10.59775448,-7,33,0
3.11056265,2,14,10.52509382,5,33,0
3.11056265,3,14,10.44268165,10,33,0
3.143819333,4,14,10.54440136,12,33,0
3.232645975,2,14,10.6170429,4,33,0
3.244934514,-3,14,10.6391917,-2,33,0
3.238765197,-3,14,10.58444141,-9,33,0
3.256746843,-2,14,10.63232806,-11,33,0
3.357439501,-4,14,10.84354186,-9,33,0
3.435171029,1,14,10.86883618,2,33,0
3.459768778,2,14,10.71464418,11,33,0
3.433307443,4,14,10.77545359,12,33,0
3.428177358,1,14,10.83005078,3,33,0
3.384021277,1,14,10.75873599,0,33,0
3.340718486,-3,14,10.62489529,-8,33,0
3.344488003,-1,14,10.62178893,-9,33,0
3.390634159,-3,14,10.83972324,-11,33,0
3.390634159,-1,14,10.83972324,0,33,0
3.344488003,4,14,10.65136611,11,33,0
3.342813187,2,14,10.70371898,14,33,0
3.41063044,4,14,10.75957248,3,33,0
3.366244198,-2,14,10.72054103,-2,33,0
3.346699867,-4,14,10.58383673,-6,33,0
3.346699867,1,14,10.56728915,-6,33,0
3.318794962,-4,14,10.89588913,-17,34,0
3.318794962,1,14,10.89588913,3,34,0
3.274385439,5,14,10.71150783,11,34,0
3.3346664,3,14,10.70627853,12,34,0
3.359523776,0,14,10.89065655,8,34,0
3.446099244,2,14,10.91437584,-1,34,0
3.341915618,-4,14,10.8133991,-5,34,0
3.342095151,-3,14,10.76245325,-7,34,0
3.377336228,-3,14,11,-18,34,0
3.411099529,0,14,11.05433851,0,34,0
3.411744422,4,14,10.98173028,8,34,0
3.422805867,-3,14,10.95927005,7,34,0
3.422805867,3,14,11.04362259,11,34,0
3.493765877,5,14,11.02145181,2,34,0
3.493765877,-2,14,10.95992701,-2,34,0
3.374077652,-2,14,10.85248359,-5,34,0
3.377869151,-3,14,10.9668774,-17,34,0
3.616683564,-8,16,11.11555667,-5,34,0
3.521363372,5,16,10.9559299,5,34,0
3.517328532,4,16,10.90396258,14,34,0
3.518863453,1,16,11.05621997,11,34,0
3.496798536,-1,16,11.09515209,-1,34,0
3.483446569,2,16,11.07481828,-1,34,0
3.44,-2,16,10.92329621,-11,34,0
3.460693572,-4,16,11.03405637,-12,34,0
3.461155876,5,16,11.13410975,-2,34,0
3.387270287,-1,16,10.98078321,5,34,0
3.36071421,1,16,10.88294078,12,34,0
3.428177358,4,16,11.05768511,11,34,0
3.395820961,-3,16,11.05768511,-3,34,0
3.304602851,0,16,10.9648347,0,34,0
3.304602851,1,16,10.81186385,-10,34,0
3.304602851,-3,16,10.82739119,-7,34,0
3.342154993,-4,16,11.07111557,-12,34,0
3.257974831,1,16,11.04393046,3,34,0
3.178427284,2,16,10.87619419,13,34,0
3.146045136,2,16,10.94438669,11,34,0
3.186785214,3,16,11.00152717,3,34,0
3.219254572,0,16,11.02406459,1,34,0
3.219254572,-1,16,10.9260972,-7,34,0
3.226205201,-1,16,10.91422924,-8,34,0
3.280243893,-6,16,11.09163649,-13,34,0
3.385911989,-3,16,11.06424873,0,34,0
3.305086988,6,16,10.85771615,10,34,0
3.318132005,4,16,10.8793566,12,34,0
3.376921675,2,16,10.98282295,7,34,0
3.440290685,2,16,11.05486318,1,34,0
3.456935059,-3,16,11.0232663,-7,34,0
3.456935059,-5,16,11.01034059,-8,34,0
3.49336514,-2,16,11.21042372,-15,34,0
3.451898029,1,16,11.08873302,0,33,0
3.433715189,0,16,10.89897243,8,33,0
3.447665877,0,16,10.87647002,9,33,0
3.40728631,5,16,10.98209452,11,33,0
3.504511378,-10,16,10.83928042,-5,33,0
3.438371708,12,16,10.69394221,-2,33,0
3.41970759,-6,16,10.61877582,-6,33,0
3.44818793,-2,16,10.79214529,-14,33,0
3.563649814,-4,16,10.82199612,-3,33,0
3.549422488,5,16,10.68046815,7,33,0
3.57121828,5,16,10.6271539,12,33,0
3.623754959,2,16,10.78200352,11,33,0
3.683748091,0,16,10.952187,4,35,0
3.65535224,0,16,10.9318068,-6,35,0
3.637636595,-2,16,10.85172797,-8,35,0
3.642471688,-5,16,10.94100544,-14,35,0
3.685864892,-2,16,11.16967323,-9,37,0
3.638736044,-4,15,11.08745237,6,37,0
3.61131555,11,15,10.95985401,15,37,0
3.648342089,1,15,11.08433128,11,37,0
3.666060556,-1,15,11.08433128,1,37,0
3.670912693,-4,15,11.04536102,-3,37,0
3.663932314,1,15,10.94524554,-7,37,0
3.668460167,-1,15,11.00298141,-11,37,0
3.647519705,-2,15,11.10315271,-8,37,0
3.651027253,2,15,11.05687117,4,37,0
3.65535224,0,15,10.98544492,11,37,0
3.661966685,3,15,11.10619647,13,37,0
3.621104804,1,15,11.10619647,2,37,0
3.701945434,3,15,11.22504343,2,37,0
3.713542783,-3,15,11.17549104,-8,37,0
3.69459064,-3,15,11.19042448,-12,37,0
3.798368071,-6,15,11.38567521,-12,37,0
3.822878497,1,15,11.32600547,0,37,0
3.808884351,3,15,11.13856364,12,37,0
3.805259518,2,15,11.18729637,12,37,0
3.86284869,5,15,11.2626995,5,37,0
3.846088923,-2,15,11.24306008,-2,37,0
3.817276516,-1,15,11.12879149,-5,37,0
3.796630085,-2,15,11.10317072,-8,37,0
3.831240008,-4,15,11.30069024,-13,37,0
3.883297568,-2,15,11.32785946,-1,37,0
3.75574227,5,15,11.14242343,12,37,0
3.773592453,4,15,11.14854251,10,37,0
3.813449882,2,15,11.2999292,9,37,0
3.910242959,3,16,11.2999292,-1,37,0
3.8512855,-3,16,11.17606371,-5,37,0
3.814131618,-5,16,11.12239183,-9,37,0
3.85559334,-4,16,11.37956062,-17,37,0
3.8419266,2,16,11.37956062,2,37,0
3.831448812,3,16,11.20349945,10,37,0
3.818690875,-1,16,11.16116481,7,37,0
3.806573262,1,16,11.24257978,8,37,0
3.903280671,6,16,11.22098035,2,37,0
3.758776397,-6,16,11.20822912,-5,37,0
3.709932614,-2,16,11.17955276,-6,37,0
3.735719476,-2,16,11.35598521,-15,37,0
3.705185555,4,16,11.35598521,0,37,0
3.549028036,0,16,11.14156183,7,37,0
3.529532547,0,16,11.04697244,8,37,0
3.529532547,2,16,11.16438982,11,37,0
3.529532547,2,16,11.18749302,2,37,0
3.482298092,-6,16,10.99288861,-6,36,0
3.458323293,-2,16,10.88979339,-9,36,0
3.518863453,-2,16,11.06048824,-13,36,0
3.505709629,6,16,11.1270661,0,36,0
3.456935059,-2,16,10.82310491,6,33,0
3.263372489,-1,14,10.63625874,8,33,0
3.244009864,2,14,10.72238779,10,33,0
3.377869151,8,14,10.76891824,4,33,0
3.377869151,-5,14,10.74662738,-2,33,0
3.3717058,-2,14,10.66725832,-9,33,0
3.389690251,-3,14,10.75778788,-13,33,0
3.418830209,-1,14,10.99681772,-8,34,0
3.418830209,0,14,10.91780198,5,34,0
3.418830209,2,14,10.7876967,11,34,0
3.430510166,4,14,10.89219904,13,34,0
3.424908758,-3,14,10.85312858,-1,34,0
3.407110212,1,14,10.74953022,-1,34,0
3.31517722,0,14,10.52045626,-6,33,0
3.293933818,-1,14,10.4900715,-9,33,0
3.326018641,-3,14,10.76876966,-12,33,0
3.210046729,2,14,10.71492417,4,33,0
3.118717685,1,14,10.4872494,12,33,0
3.137897385,4,14,10.61101315,14,33,0
3.197561571,1,14,10.81815141,5,35,0
3.22763071,1,14,10.84258272,-3,35,0
3.297332255,0,14,10.77775487,-7,35,0
3.333226665,-9,14,10.76104084,-11,35,0
3.459710971,-3,14,11.04977828,-14,35,0
3.562078045,-1,15,11.1371271,0,35,0
3.459537541,5,15,10.95445115,11,35,0
3.471253376,0,15,10.99992727,15,35,0
3.538869876,8,15,11.14271062,6,35,0
3.482814953,-5,15,11.07070007,-2,35,0
3.321987357,1,15,10.93800713,-5,35,0
3.256009828,-2,15,10.86278049,-8,35,0
3.260736113,-1,15,11.03311379,-13,35,0
3.324394682,-5,15,10.97662972,-1,35,0
3.324394682,4,15,10.80890374,9,35,0
3.364758535,6,15,10.80340687,10,35,0
3.385911989,-1,15,10.95446941,9,35,0
3.385911989,-2,15,10.99398017,-1,35,0
3.385911989,6,15,10.95446941,-2,35,0
3.423448554,-3,15,10.92490732,-6,35,0
3.451144738,-7,15,11.05385001,-16,35,0
3.436509857,6,15,11.02970535,-1,35,0
3.453925303,0,15,10.87472298,8,35,0
3.487635302,1,15,10.83566334,8,35,0
3.541807448,1,15,11.00588933,11,35,0
3.814131618,6,18,11.10344091,2,35,0
3.83854139,-5,18,11.05846282,-4,35,0
3.831501011,-6,18,11.00707045,-11,35,0
3.914077158,-6,18,11.1642465,-14,35,0
3.914077158,1,18,11.24782646,-4,35,0
3.933497172,3,18,11.18035778,6,35,0
3.961060464,-1,18,11.1244056,9,35,0
3.949886074,2,18,11.17692265,10,35,0
3.952518185,3,18,11.17692265,2,35,0
3.819738211,0,18,11.11172354,1,35,0
3.805259518,-1,18,11,-7,35,0
3.811351466,-2,18,11.02631398,-10,35,0
3.827322824,-2,18,11.06614657,-6,35,0
3.811351466,1,18,10.90183471,0,35,0
3.784177586,1,18,10.74511982,10,35,0
3.778306499,1,18,10.80779348,11,35,0
3.778306499,3,18,10.82803768,3,35,0
3.777618297,-2,18,10.84636345,-1,35,0
3.784177586,-2,18,10.79118158,-7,35,0
3.790303418,0,18,10.81191935,-9,35,0
3.843123729,-3,18,10.98910369,-10,35,0
3.827531842,2,18,10.87067615,1,35,0
3.822093667,3,18,10.70700705,9,35,0
3.821832021,0,18,10.75360405,13,35,0
3.806363094,2,18,10.77569487,5,35,0
3.75893602,-1,18,10.6456376,-1,34,0
3.676356892,-1,18,10.51264001,-5,34,0
3.601610751,-3,18,10.4747315,-9,34,0
3.576646474,1,18,10.64706532,-12,34,0
3.544234755,-4,18,10.55350179,-1,34,0
3.422046172,2,17,10.27277957,9,33,0
3.41268223,5,17,10.23955077,11,33,0
3.453056617,3,17,10.36071426,9,33,0
3.383725757,-2,17,10.33587926,-1,33,0
3.440930107,2,17,10.27830725,-4,33,0
3.440930107,-3,17,10.23960937,-7,33,0
3.447259781,-3,17,10.43703023,-16,33,0
3.499942857,-3,17,10.43703023,0,33,0
3.41227197,1,17,10.2776651,6,33,0
3.4,2,17,10.23767552,9,33,0
3.4,5,17,10.37581804,12,33,0
3.583517825,5,17,10.42696504,2,33,0
3.633180425,-4,17,10.40624812,-4,33,0
3.528455753,-3,17,10.33264729,-7,33,0
3.504283094,-3,17,10.49296907,-17,33,0
3.556177723,-4,17,10.60067922,-3,33,0
3.622154055,0,17,10.53430586,6,33,0
3.604219749,6,17,10.50830148,11,33,0
3.574576898,1,17,10.62871582,11,33,0
3.520284079,0,17,10.56070073,-1,33,0
3.180188674,0,15,10.38315944,-3,32,0
3.065681001,-2,15,10.25134138,-6,32,0
3.069136686,1,15,10.34725084,-12,32,0
2.962498945,-3,14,10.32327467,-2,32,0
2.888875214,0,14,10.12009881,3,31,0
2.877568418,1,14,9.996079231,9,31,0
2.844573782,2,14,10.08214263,10,31,0
2.849842101,1,14,10.20541033,4,31,0
2.865309756,1,14,10.20541033,-4,31,0
2.865309756,-1,14,10.10393983,-7,31,0
2.863843571,-2,14,10.15984252,-11,31,0
2.920890275,-4,14,10.37682032,-8,31,0
2.920890275,1,14,10.37682032,4,31,0
2.905443168,4,14,10.23335722,12,31,0
2.909364192,1,14,10.33674997,11,31,0
2.918150099,0,14,10.4417623,3,31,0
3.001066477,4,14,10.46443501,-1,31,0
3.008055851,-4,14,10.37157654,-9,31,0
3.008055851,-3,14,10.38770427,-9,31,0
3.04032893,-2,14,10.61252091,-11,31,0
3.014365605,0,14,10.61252091,1,31,0
3.001599574,5,14,10.42450958,13,31,0
3.020993214,1,14,10.48162201,12,31,0
3.039736831,0,14,10.59866029,4,31,0
3.020993214,-2,14,10.5561546,-3,31,0
3.01489635,-1,14,10.4517941,-6,31,0
3.014962686,0,14,10.4174661,-7,31,0
3.092959748,-5,14,10.66397674,-14,31,0
3.258465897,-2,16,10.75144641,-1,32,0
3.174901573,6,16,10.59866029,9,32,0
3.138407239,2,16,10.57372215,12,32,0
3.304542328,7,16,10.77916509,12,33,0
3.334006599,-2,16,10.75525918,-3,33,0
3.334006599,-3,16,10.67747161,-4,33,0
3.281767816,-4,16,10.60897733,-9,33,0
3.363093814,-4,16,10.84988479,-16,33,0
3.513175202,-2,16,10.90497134,0,33,0
3.460866943,7,16,10.76893681,9,33,0
3.42928564,1,16,10.70708177,8,33,0
3.459768778,3,16,10.83189734,11,33,0
3.583796869,4,16,10.88156239,3,33,0
3.436568055,-3,15,10.77062672,-5,33,0
3.395349761,-2,15,10.67153222,-7,33,0
3.40523127,-5,15,10.7943689,-15,33,0
3.455083212,-2,15,10.90438444,-5,33,0
3.376388603,3,15,10.76104084,7,33,0
3.293690939,3,15,10.66637708,11,33,0
3.351954654,3,15,10.7723535,10,33,0
3.402587251,0,15,10.79473946,2,33,0
3.402587251,-3,15,10.77606607,-3,33,0
3.417601498,-4,15,10.72201474,-9,33,0
3.453751583,-1,15,10.8554134,-13,33,0
3.57211422,-3,15,11.09178074,-7,35,0
3.57211422,4,15,11.11395519,6,35,0
3.556458913,3,15,11.04347771,12,35,0
3.556627616,1,15,11.17139204,13,35,0
3.573009936,1,15,11.25529209,2,35,0
3.6,1,15,11.18979893,-3,35,0
3.584187495,-3,15,11.11006751,-8,35,0
3.579050153,-1,15,11.12445954,-8,35,0
3.595775299,-2,15,11.32220827,-12,35,0
3.595775299,-2,15,11.29523793,2,35,0
3.562078045,4,15,11.17749525,12,35,0
3.562246482,0,15,11.24924886,12,35,0
3.573289801,3,15,11.24924886,2,35,0
3.567856499,-2,15,11.18286189,0,35,0
3.499771421,2,15,11.07503499,-4,35,0
3.493765877,-2,15,11.05985533,-7,35,0
3.521363372,-4,15,11.18615215,-13,35,0
3.504796713,1,15,11.10956345,0,35,0
3.471253376,2,15,10.91604324,10,35,0
3.465313839,1,15,10.96904736,11,35,0
3.482757528,3,15,11.05448325,6,35,0
3.550830889,2,15,11.03052129,-1,35,0
3.567015559,-3,15,10.97998179,-5,35,0
3.571498285,-1,15,10.9585583,-8,35,0
3.589373204,-4,15,11.15770586,-15,35,0
3.560898763,-2,15,11.10430547,1,35,0
3.405877273,7,15,10.85543182,10,35,0
3.405877273,-4,15,10.81295519,9,35,0
3.41970759,4,15,10.96904736,9,35,0
3.279085238,0,15,10.87058416,-2,34,0
3.197561571,-1,15,10.76475731,-5,34,0
3.215213834,2,15,10.69497078,-6,34,0
3.304542328,-9,15,10.90579662,-16,34,0
3.273469108,1,15,10.90579662,-1,34,0
3.132091953,1,14,10.72800075,8,34,0
3.16411125,7,14,10.68690788,11,34,0
3.281767816,3,14,10.88317968,12,34,0
3.281767816,-3,14,10.92865957,-1,34,0
3.122883283,-4,13,10.78747422,-6,34,0
3.08058436,3,13,10.71402819,-4,34,0
3.085449724,-5,13,10.80416586,-14,34,0
3.131517204,-2,13,10.87926468,-5,34,0
3.163605538,-1,13,10.70269125,5,34,0
3.156517068,6,13,10.60377291,11,34,0
3.150618987,0,13,10.70700705,10,34,0
3.36220166,9,16,10.82635673,5,35,0
3.36220166,-5,16,10.76616924,-6,35,0
3.35791602,-5,16,10.68501755,-8,35,0
3.345205524,-1,16,10.78482267,-12,35,0
3.573457709,-8,19,10.98661003,-9,35,0
3.510897321,5,19,10.83381743,5,35,0
3.499085595,3,19,10.69558788,9,35,0
3.531345353,5,19,10.74645988,13,35,0
3.527038418,-4,19,10.70745535,2,35,0
3.516191121,2,19,10.62103573,0,35,0
3.482757528,-1,19,10.51340097,-10,35,0
3.482757528,0,19,10.54127127,-6,35,0
3.539265461,-5,19,10.70142047,-8,35,0
3.528229018,3,19,10.56590744,2,35,0
3.470792417,2,19,10.34902894,11,35,0
3.486488204,2,19,10.46749254,13,35,0
3.517101079,1,19,10.54682891,1,35,0
3.532930795,0,19,10.56742163,-1,35,0
3.547167884,-1,19,10.49230194,-6,35,0
3.540847356,-4,19,10.47902667,-11,35,0
3.600499965,-3,19,10.75538935,-12,35,0
3.600499965,1,19,10.80710877,2,35,0
3.582680561,3,19,10.66442685,11,35,0
3.581954774,1,19,10.74385406,14,35,0
3.596887543,2,19,10.8373613,3,35,0
3.570770225,-1,19,10.77032961,-2,35,0
3.48832338,-1,19,10.65046478,-5,35,0
3.47701021,1,19,10.59292217,-6,35,0
3.471310992,-1,19,10.75055347,-13,35,0
3.458843737,1,19,10.65427614,2,35,0
3.428177358,2,19,10.47159969,9,35,0
3.417835572,-2,19,10.4974092,9,35,0
3.460404601,3,19,10.65112201,7,35,0
3.455777771,-6,19,10.58347769,-3,35,0
3.442382896,1,19,10.49761878,-4,35,0
3.438662531,0,19,10.45525705,-7,35,0
3.494223805,-5,19,10.69923362,-16,35,0
3.405877273,6,19,10.67222563,2,35,0
3.381656399,-4,19,10.50683587,5,35,0
3.346879143,5,19,10.44612847,11,35,0
3.346879143,2,19,10.59101506,11,35,0
3.23041793,-2,19,10.53975332,0,35,0
3.195058685,-2,19,10.40432602,-6,35,0
3.257053883,-4,19,10.34603306,-7,35,0
3.295087252,0,19,10.51720495,-14,35,0
3.295087252,2,19,10.66135076,-2,35,0
3.295087252,-2,19,10.5656235,5,35,0
3.212475681,3,19,10.47360492,11,35,0
3.250907566,5,19,10.60822323,12,35,0
3.257238094,-2,19,10.62956255,0,35,0
2.969444392,0,14,10.46510392,-3,33,0
2.895237469,-1,14,10.37737925,-6,33,0
2.900275849,-2,14,10.41737011,-10,33,0
2.930460715,-2,14,10.56219674,-9,33,0
2.641514717,1,10,10.31753847,6,31,0
2.569747069,3,10,10.12800079,10,31,0
2.586503431,2,10,10.23718711,12,31,0
2.563123095,0,10,10.3869341,3,32,0
2.608907817,1,10,10.47452147,-1,32,0
2.608907817,-2,10,10.40815065,-9,32,0
2.617174048,-3,10,10.43664697,-10,32,0
2.819645368,-6,12,10.65136611,-11,32,0
2.894408402,1,12,10.67895126,1,32,0
2.926021189,3,12,10.57438414,9,32,0
2.926021189,4,12,10.60228277,12,32,0
2.976172038,4,12,10.62495176,7,32,0
2.954657341,-2,12,10.60228277,-1,32,0
2.917601755,-1,12,10.50449428,-6,32,0
2.891366459,-2,12,10.47795782,-8,32,0
2.921369542,-3,12,10.6686269,-13,32,0
2.862236887,4,12,10.50951949,4,31,0
2.825668063,0,12,10.29681504,8,31,0
2.834713389,1,12,10.30768645,9,31,0
2.834713389,-1,12,10.37111373,7,31,0
2.819645368,1,12,10.3481206,-1,31,0
2.81147648,-1,12,10.28250942,-5,31,0
2.816025568,-2,12,10.25428691,-8,31,0
2.842534081,-2,12,10.47742335,-14,31,0
2.842534081,4,12,10.50325664,1,31,0
2.865309756,-4,12,10.43386793,7,31,0
2.814249456,2,12,10.43264108,9,31,0
2.831889828,4,12,10.54407891,11,31,0
2.965400479,5,15,10.51903037,0,31,0
2.989046671,-5,15,10.48200363,-4,31,0
2.991253918,-2,15,10.44545834,-6,31,0
3.006725794,-3,15,10.60724281,-16,31,0
3.190047022,-7,17,10.67078254,-5,33,0
3.264414189,4,17,10.60077356,7,33,0
3.264414189,2,17,10.5277538,9,33,0
3.264414189,5,17,10.63543135,13,33,0
3.408753438,6,17,10.71529748,5,34,0
3.408753438,-6,17,10.63496121,-7,34,0
3.434181125,1,17,10.59879238,-6,34,0
3.388273897,-4,17,10.71337482,-14,34,0
3.415494108,-4,17,10.86528417,-8,35,0
3.415494108,3,17,10.72186551,9,35,0
3.378520386,0,17,10.60822323,9,35,0
3.376388603,3,17,10.71613736,12,35,0
3.356724594,2,17,10.76306648,3,35,0
3.370459909,0,17,10.76306648,-2,35,0
3.36071421,-3,17,10.69586836,-10,35,0
3.362380109,-1,17,10.76654076,-11,35,0
3.408284026,-3,17,10.92820205,-6,35,0
3.383784863,3,17,10.84879717,2,35,0
3.374255473,0,17,10.75964683,11,35,0
3.396233208,4,17,10.8485022,12,35,0
3.440930107,2,17,10.8485022,2,35,0
3.427477206,-3,17,10.77508237,0,35,0
3.38608919,-1,17,10.61773987,-7,35,0
3.375440712,-1,17,10.6270598,-11,35,0
3.399764698,-3,17,10.83677074,-10,35,0
3.2780482,0,17,10.80881122,1,35,0
3.16411125,2,17,10.61252091,12,35,0
3.153474275,4,17,10.67145726,13,35,0
3.160759402,-1,17,10.79186731,3,35,0
3.160759402,3,17,10.76928967,-1,35,0
3.206243908,0,17,10.68323921,-5,35,0
3.198499648,-5,17,10.66013133,-10,35,0
3.285178838,-5,17,10.8913911,-13,35,0
3.370459909,-1,17,10.91935896,0,35,0
3.445809049,1,17,10.84317297,10,35,0
3.445809049,6,17,10.8692042,12,35,0
3.504340166,4,17,11.01397294,8,35,0
3.671729838,3,17,11.03811578,0,35,0
3.683748091,-5,17,10.98182134,-5,35,0
3.690203246,-1,17,10.93890305,-8,35,0
3.7,-4,17,11.11316337,-15,35,0
3.745984517,-3,17,11.11316337,-1,35,0
3.81580922,0,17,10.99570825,7,35,0
3.790989317,6,17,10.95519968,10,35,0
3.845048764,4,17,11.10142333,11,35,0
3.833744905,-3,17,11.04045289,-3,35,0
3.673472472,-2,17,10.92124535,-4,35,0
3.720215048,-5,17,10.84665847,-6,35,0
3.740802053,2,17,11.00937782,-14,35,0
3.771683974,-1,17,11.03305941,0,35,0
3.563649814,2,14,10.8014999,6,35,0
3.490787877,2,14,10.70044859,11,35,0
3.556683849,6,14,10.87310443,11,35,0
3.709932614,2,14,10.96556428,1,35,0
3.638076415,-2,14,10.91217668,-1,34,0
3.649657518,-3,14,10.86324077,-9,34,0
3.645545227,-5,14,10.96994075,-16,34,0
3.746998799,-4,14,11.09205121,-5,34,0
3.701675296,3,14,10.83630933,7,31,0
3.689173349,4,14,10.73985102,10,31,0
3.693237063,2,14,10.84083023,10,31,0
3.774917218,3,14,10.90643847,3,31,0
3.790725524,-2,14,10.84083023,-3,31,0
3.774705287,-4,14,10.7198694,-9,31,0
3.789934036,-2,14,10.79696254,-11,31,0
3.890706877,-4,14,11.02087111,-9,33,0
3.890706877,2,14,10.9945441,4,33,0
3.9,2,14,10.8411992,12,33,0
3.902614508,4,14,10.92192291,12,33,0
3.965299484,4,14,10.98224021,3,33,0
3.944616585,-2,14,11.00401745,0,33,0
3.970692635,0,14,10.91071033,-7,33,0
3.970340036,-4,14,10.90790539,-10,33,0
3.984419657,-2,14,11.05593054,-10,33,0
4.003798197,-2,14,11.02769242,-1,33,0
3.981004898,6,14,10.82517436,12,33,0
3.97617907,-1,14,10.86675665,11,33,0
4.011034779,4,14,10.92682937,5,33,0
4.054626987,0,14,10.9050447,-1,33,0
4.006195202,-4,14,10.81154938,-6,33,0
3.969332438,-3,14,10.78153978,-9,33,0
4.016217126,-2,14,10.95702514,-11,33,0
3.949126486,3,14,10.90183471,0,33,0
3.894046738,-3,14,10.69439105,8,33,0
3.81701454,4,14,10.67565455,11,33,0
3.822093667,2,14,10.81561834,9,33,0
3.785498646,1,14,10.79186731,-1,33,0
3.638076415,-1,14,10.67559834,-5,33,0
3.623534186,-3,14,10.60869455,-9,33,0
3.644173432,-2,14,10.85172797,-15,33,0
3.678912883,-1,14,10.85172797,2,33,0
3.678912883,-1,14,10.71753703,5,33,0
3.605773149,6,14,10.65504575,10,33,0
3.624582735,2,14,10.80044444,12,33,0
3.652998768,3,14,10.82443532,1,33,0
3.731434041,0,14,10.86294619,-2,33,0
3.731434041,-6,14,10.84658472,-8,33,0
3.683530915,-3,14,11.01097634,-17,33,0
3.683530915,0,14,11.06627309,-3,33,0
3.645545227,1,14,10.9592153,7,33,0
3.634501341,1,14,10.89625624,11,33,0
3.650150682,4,14,11.00915982,10,33,0
3.719623637,5,14,11.06084988,4,34,0
3.573513677,-6,14,10.93756829,-7,34,0
3.491475333,-3,14,10.77012535,-8,34,0
3.475859606,0,14,10.8653762,-12,34,0
3.468486702,3,14,10.96082114,-4,34,0
3.382839044,-5,14,10.83667846,4,34,0
3.353863444,2,14,10.76150547,13,34,0
3.359107024,0,14,10.82997692,7,34,0
3.714835124,13,18,10.94926482,7,34,0
3.688305844,-7,18,10.92558465,-3,34,0
3.656446362,-4,18,10.84267495,-8,34,0
3.672002179,2,18,10.87715036,-11,34,0
3.737592808,-8,18,10.98427968,-8,34,0
3.655625801,2,17,10.8656523,0,32,0
3.655625801,-1,17,10.69235241,10,32,0
3.672383422,1,17,10.73826802,12,32,0
3.682879308,6,17,10.73826802,2,32,0
3.617955224,0,17,10.69579357,1,32,0
3.584466487,-2,17,10.55461984,-8,32,0
3.553927405,-2,17,10.5609848,-9,32,0
3.605773149,-3,17,10.78673259,-10,32,0
3.591322876,4,17,10.76180282,3,32,0
3.538361203,0,17,10.55272477,11,32,0
3.532081539,1,17,10.64939435,13,32,0
3.550154926,2,17,10.76661507,3,32,0
3.497198879,-1,17,10.74446834,-2,32,0
3.434006407,-2,17,10.63984962,-7,32,0
3.462311367,-3,17,10.62743619,-9,32,0
3.498628303,-1,17,10.83143573,-11,32,0
3.524996454,-1,17,10.85815822,0,32,0
3.523407442,6,17,10.69833632,10,32,0
3.512491993,3,17,10.7034387,12,32,0
3.54964787,0,17,10.879136,8,32,0
3.561404217,-1,17,10.8334482,-3,32,0
3.601166478,2,17,10.7559286,-3,32,0
3.59494089,-5,17,10.70282206,-8,32,0
3.605551275,-2,17,10.88898526,-15,32,0
3.627064929,-2,17,10.83330051,0,32,0
3.589373204,2,17,10.68129206,8,32,0
3.505481422,3,17,10.60416899,9,32,0
3.510897321,1,17,10.72484965,9,32,0
3.577093792,4,17,10.72484965,1,32,0
3.510897321,-3,17,10.60897733,-5,32,0
3.42981049,-4,17,10.48427394,-8,32,0
3.462715697,-2,17,10.68922822,-15,32,0
3.512491993,-2,17,10.77025534,-1,32,0
3.480747046,5,17,10.6061303,7,32,0
3.482757528,3,17,10.52663289,10,32,0
3.51049854,1,17,10.651291,11,32,0
3.527038418,0,17,10.67378096,1,32,0
3.527038418,4,17,10.55099995,-2,32,0
3.522271994,-8,17,10.49274035,-7,32,0
3.522271994,-1,17,10.59103394,-14,32,0
3.550999859,-2,17,10.68922822,-5,32,0
3.550830889,2,17,10.55274372,6,32,0
3.517044214,1,17,10.43243021,10,32,0
3.516191121,2,17,10.53595748,10,32,0
3.514313589,0,17,10.61463141,2,32,0
3.11826875,-1,13,10.4560987,-4,31,0
3.066202863,-3,13,10.30302868,-8,31,0
3.08084404,0,13,10.36048261,-10,31,0
3.087069808,-1,13,10.56842467,-7,31,0
3.033216115,0,13,10.56842467,2,31,0
3.001932711,4,13,10.38346763,14,31,0
2.985900199,3,13,10.52235715,13,31,0
2.988243631,0,13,10.66810199,2,31,0
3.008055851,0,13,10.75339946,-1,31,0
2.994929048,-2,13,10.67005155,-9,31,0
3.001399673,0,13,10.68224695,-9,31,0
3.034798181,-5,13,10.86220972,-11,31,0
3.008255308,0,13,10.80609088,1,31,0
3.047687648,0,13,10.64548731,12,31,0
3.047884512,4,13,10.67874524,9,31,0
3.047884512,0,13,10.69908407,5,31,0
3.093477008,4,13,10.67499883,1,31,0
3.125123998,-1,13,10.59101506,-6,31,0
3.125123998,-4,13,10.57183049,-7,31,0
3.105414626,-2,13,10.74670182,-14,31,0
3.058692531,0,13,10.69356816,1,31,0
2.961418579,1,13,10.50934822,7,31,0
2.970589167,0,13,10.49169195,10,31,0
2.938639141,3,13,10.5755189,8,31,0
2.938639141,2,13,10.52509382,1,31,0
3.05450487,3,13,10.48572363,-3,31,0
2.993325909,-7,13,10.41769648,-10,31,0
3.034534561,-3,13,10.6689081,-16,31,0
3.034534561,1,13,10.6689081,2,31,0
3.007723392,-1,13,10.54240959,6,31,0
3.027936591,0,13,10.50477986,8,31,0
3.028134739,3,13,10.58536726,10,31,0
3.021588986,1,13,10.54553934,0,31,0
2.924106701,-2,13,10.43572709,-3,31,0
2.917601755,-1,13,10.3788246,-6,31,0
2.973213749,-2,13,10.54212502,-14,31,0
2.973213749,1,13,10.57135753,-3,31,0
2.915887515,0,12,10.40463358,7,31,0
2.915887515,3,12,10.32387524,9,31,0
2.900275849,2,12,10.45410924,12,31,0
3.22961298,9,15,10.58708647,5,33,0
3.255088324,-6,15,10.54369954,-6,33,0
3.077726434,-3,15,10.45753317,-6,33,0
3.093800252,-4,15,10.54445826,-15,33,0
3.090695715,3,15,10.63571342,-4,33,0
3.061045573,-2,15,10.55888252,2,33,0
3.072718666,-1,15,10.48864148,9,33,0
3.072718666,2,15,10.5600947,12,33,0
3.134389893,5,15,10.65497067,6,33,0
3.193743885,0,15,10.63232806,-3,33,0
3.193054964,-5,15,10.56456341,-10,33,0
3.182514729,2,15,10.60067922,-8,33,0
3.182514729,-4,15,10.63887212,-5,33,0
3.151190251,1,15,10.50959562,0,33,0
3.111848325,2,15,10.31738339,9,33,0
3.119038313,-2,15,10.38606759,11,33,0
3.099935483,4,15,10.43731766,6,33,0
3.08058436,0,15,10.41078287,-1,33,0
3.060980235,0,15,10.26498904,-8,33,0
3.06,-4,15,10.25594462,-9,33,0
3.088300504,-2,15,10.49237819,-13,33,0
3.112876483,-1,15,10.49237819,1,33,0
3.112876483,1,15,10.32480508,10,33,0
3.09896757,6,15,10.40815065,15,33,0
3.275118318,5,15,10.54060719,4,33,0
3.280792587,-6,15,10.52,-3,33,0
3.22018633,-2,15,10.39084212,-6,33,0
3.181194744,0,15,10.37604934,-10,33,0
3.269556545,-5,16,10.65316854,-12,34,0
3.253367486,5,16,10.65316854,3,34,0
3.253367486,-2,16,10.52798176,8,34,0
3.264597984,0,16,10.50007619,9,34,0
3.275667871,0,16,10.57659681,7,34,0
3.268271715,3,16,10.55545357,1,34,0
3.293933818,4,16,10.44413711,-4,34,0
3.176727876,-2,16,10.35082605,-6,34,0
3.181194744,-4,16,10.53529307,-15,34,0
3.14985714,2,16,10.43012943,2,34,0
3.138470965,-2,16,10.27713968,6,34,0
3.169921135,6,16,10.22798123,10,34,0
3.131836522,-4,16,10.33858791,7,34,0
3.170110408,-4,16,10.33858791,-1,34,0
3.262453065,9,16,10.30533842,-2,34,0
3.293690939,-9,16,10.26263124,-7,34,0
3.365947118,-2,16,10.48228983,-16,34,0
3.365947118,1,16,10.59554623,-2,34,0
3.346640106,7,16,10.39886532,10,34,0
3.328002404,-5,16,10.31806183,7,34,0
3.382543422,7,16,10.42729112,11,34,0
3.620165742,5,16,10.53035612,5,34,0
3.435112807,-3,15,10.39646094,-4,33,0
3.387093149,-5,15,10.30813271,-7,33,0
3.446099244,-6,15,10.38554765,-15,33,0
3.634556369,-4,18,10.59813191,-8,34,0
3.714242857,3,18,10.59813191,4,34,0
3.709447398,5,18,10.4618354,14,34,0
3.699945946,2,18,10.542789,10,34,0
3.705347487,0,18,10.64745979,4,34,0
3.683748091,2,18,10.59639561,-1,34,0
3.628167582,-3,18,10.48816476,-8,34,0
3.628167582,-1,18,10.53422992,-12,34,0
3.652067907,-3,18,10.771518,-10,34,0
3.667424164,0,18,10.8154704,4,34,0
3.667424164,2,18,10.7079223,11,34,0
3.673908001,3,18,10.81302918,13,34,0
3.704537758,2,18,10.84885247,0,34,0
3.687221176,-3,18,10.7355298,-1,34,0
3.66938687,0,18,10.56880315,-6,34,0
3.651027253,0,18,10.54203017,-7,34,0
3.675921653,-4,18,10.73871501,-12,34,0
3.696268389,-1,18,10.71053687,0,34,0
3.66081958,2,18,10.52746883,10,34,0
3.638076415,4,18,10.56568029,13,34,0
3.626348025,0,18,10.63016463,5,34,0
3.46,-1,18,10.56,-2,34,0
3.473096601,2,18,10.47948472,-5,34,0
3.487119155,-5,18,10.45563963,-7,34,0
3.562302626,-3,18,10.69932708,-16,34,0
3.487119155,5,18,10.61402845,3,34,0
3.500628515,-2,18,10.46586833,8,34,0
3.488782022,3,18,10.44788974,10,34,0
3.495368364,2,18,10.62225965,10,34,0
3.601388621,4,18,10.73640536,1,34,0
3.61778938,-4,18,10.70035513,-6,34,0
3.567015559,-4,18,10.65833008,-8,34,0
3.579106034,-2,18,10.81635798,-14,34,0
3.625244819,-1,18,10.81635798,-1,34,0
3.627671429,3,18,10.72844816,7,34,0
3.627671429,0,18,10.69459677,8,34,0
3.585303334,4,18,10.81006938,11,34,0
3.583350388,-3,18,10.83071558,0,34,0
3.559157204,-1,18,10.78524919,-5,34,0
3.471310992,3,18,10.73193366,-5,34,0
3.456240732,-4,18,10.86508168,-14,34,0
3.488552709,-4,18,10.9551084,-6,34,0
3.51476884,1,18,10.82295708,6,34,0
3.624141278,12,18,10.78079774,14,34,0
3.632134359,-4,18,10.93048947,11,34,0
3.590487432,0,18,10.95079906,-1,34,0
3.310347414,-2,15,10.778794,-4,33,0
3.161265569,0,15,10.65074645,-6,33,0
3.147316317,-1,15,10.68511114,-10,33,0
3.110241148,-2,15,10.88832402,-10,33,0
3.019668856,-4,13,10.79896291,3,33,0
2.935370505,6,13,10.62065911,15,33,0
2.986703869,4,13,10.73254863,11,33,0
3.002399041,-1,13,10.87428159,5,34,0
3.067833111,2,13,10.90034862,-1,34,0
3.046309242,-2,13,10.79259005,-8,34,0
3.069592807,0,13,10.77480394,-9,34,0
3.102837411,-6,13,10.86270684,-10,34,0
3.074345459,2,13,10.75166964,-1,34,0
3.045061576,0,13,10.59397942,11,34,0
3.049196616,3,13,10.67567328,12,34,0
3.11056265,3,13,10.74273708,4,34,0
3.090372146,-2,13,10.76306648,-2,34,0
3.090372146,-2,13,10.69811198,-7,34,0
3.106444913,-3,13,10.69693414,-8,34,0
3.314453198,-6,15,10.96067516,-14,34,0
3.298545134,6,15,10.93405689,3,34,0
3.249615362,1,15,10.74623655,9,34,0
3.243701589,3,15,10.74848827,11,34,0
3.302181097,3,15,10.84066419,7,34,0
3.302181097,-3,15,10.79844433,-2,34,0
3.302181097,-1,15,10.72419694,-5,34,0
3.281767816,0,15,10.69506428,-6,34,0
3.281767816,-3,15,10.90763036,-15,34,0
3.228683942,-1,15,10.82153409,1,34,0
3.262146533,0,15,10.68234057,7,34,0
3.251153641,2,15,10.64723438,9,34,0
3.290957308,5,15,10.78146558,11,34,0
3.30992447,0,15,10.75749041,0,34,0
3.30992447,3,15,10.6456376,-3,34,0
3.30992447,-4,15,10.58255168,-7,34,0
3.304542328,-3,15,10.74586432,-16,34,0
3.275667871,2,15,10.72240645,1,34,0
3.251092124,-5,15,10.59677309,4,34,0
3.2444414,4,15,10.54658238,8,34,0
3.254289477,2,15,10.61553578,9,34,0
3.242776588,-1,15,10.61553578,3,34,0
3.3275216,4,15,10.55880675,-3,34,0
3.318373095,-5,15,10.52,-7,34,0
3.38,-5,15,10.70693233,-16,34,0
3.737592808,-7,18,10.98,-7,37,0
3.737592808,5,18,10.81571079,9,37,0
3.655133376,7,18,10.68082394,11,37,0
3.539717503,0,18,10.78497102,12,37,0
3.527038418,-2,18,10.76245325,1,37,0
3.515053342,3,18,10.74171308,-1,37,0
3.521363372,0,18,10.70708177,-6,37,0
3.520738559,-2,18,10.73990689,-11,37,0
3.600222215,-5,18,10.88942606,-9,37,0
3.636261817,1,18,10.77109094,1,37,0
3.530495716,3,18,10.55416505,14,37,0
3.61778938,7,18,10.67895126,12,37,0
3.699945946,1,18,10.79861102,4,37,0
3.715965554,-3,18,10.74543624,-2,37,0
3.661748216,-3,18,10.56060604,-10,37,0
3.67483333,-4,18,10.56855714,-11,37,0
3.683965255,0,18,10.77636302,-8,37,0
3.683965255,0,18,10.82406578,1,37,0
3.68,3,18,10.66817698,13,37,0
3.677172827,1,18,10.75287868,11,37,0
3.756381237,5,18,10.75287868,0,37,0
3.698864691,-5,18,10.66547702,0,37,0
3.682390528,-2,18,10.54751155,-6,37,0
3.684345261,0,18,10.532635,-7,37,0
3.684345261,-1,18,10.70521368,-11,37,0
3.5,1,18,10.59433811,1,37,0
3.484881634,1,18,10.42497002,9,37,0
3.499085595,3,18,10.49237819,14,37,0
3.550999859,2,18,10.69252075,6,37,0
3.65080813,3,19,10.74283017,-1,37,0
3.698648402,-3,19,10.72425289,-5,37,0
3.704915654,-6,19,10.69596185,-9,37,0
3.721558813,-1,19,10.91171847,-16,37,0
3.816228505,-4,19,10.9402925,-1,37,0
3.892351474,0,19,10.83328205,7,37,0
3.892351474,3,19,10.78472995,10,37,0
3.920255094,7,19,10.92719543,12,37,0
3.904663878,-1,19,10.90533814,-1,37,0
3.878143886,-1,19,10.81334361,-4,37,0
3.765952735,-3,19,10.72760924,-7,37,0
3.745343776,1,19,10.87926468,-14,37,0
3.771683974,-3,19,10.93039798,-2,37,0
3.773380447,1,19,10.84341275,8,37,0
3.770198934,5,19,10.78571277,9,37,0
3.829151342,2,19,10.95673309,12,37,0
3.810511777,-4,19,11.03284188,-1,37,0
3.801894265,-1,19,10.97859736,-4,37,0
3.709231726,0,19,10.91400935,-7,37,0
3.709231726,1,19,11.00728849,-12,37,0
3.709231726,-5,19,11.03383886,-5,37,0
3.388214869,1,14,10.73580924,4,32,0
3.278780261,5,14,10.59245014,13,32,0
3.2984845,1,14,10.73059178,11,32,0
3.36,2,14,10.79520264,1,32,0
3.371409201,-2,14,10.77560207,-3,32,0
3.365947118,-3,14,10.68046815,-9,32,0
3.36,0,14,10.71680923,-9,32,0
3.394642838,-3,14,10.99055959,-11,34,0
3.341915618,0,14,11.01918327,2,34,0
3.287795614,2,14,10.84105161,13,34,0
3.2984845,4,14,10.89199706,11,34,0
3.268577672,2,14,10.87198234,3,34,0
3.144773442,-3,14,10.75220908,0,34,0
3.105414626,-1,14,10.59103394,-7,34,0
3.12256305,-3,14,10.60309389,-9,34,0
3.147125673,-2,14,10.74148965,-9,34,0
3.201562119,-1,14,10.74148965,-1,34,0
3.183959799,3,14,10.56409012,12,34,0
3.205557674,5,14,10.63390803,12,34,0
3.299939393,3,14,10.74662738,6,34,0
3.336165464,1,14,10.83160191,-1,34,0
3.394642838,-2,14,10.80038888,-6,34,0
3.403586344,-2,14,10.78932806,-7,34,0
3.487635302,-8,14,10.96870093,-15,34,0
3.528229018,1,14,10.99556274,-1,34,0
3.556683849,1,14,10.8699402,9,34,0
3.573009936,6,14,10.87950367,12,34,0
3.611094017,2,14,10.98806625,9,34,0
3.638076415,1,14,10.93573957,-1,33,0
3.516873612,-2,13,10.80969935,-5,33,0
3.459248473,-4,13,10.72462587,-9,33,0
3.509358916,-4,13,10.96446989,-16,33,0
3.498571137,3,13,10.93800713,2,33,0
3.436044237,-3,13,10.7598513,6,33,0
3.330105103,2,12,10.68009363,8,33,0
3.377869151,8,12,10.80399926,12,33,0
3.400235286,-1,12,10.78185513,0,33,0
3.38490768,-4,12,10.69796242,-5,33,0
3.4,-3,12,10.64482973,-8,33,0
3.453751583,-2,12,10.85616875,-14,33,0
3.611094017,-3,14,10.96541837,-2,33,0
3.659289549,2,14,10.87089693,6,33,0
3.650534207,7,14,10.8266523,10,33,0
3.650534207,1,14,10.91290979,11,33,0
3.710741166,4,14,10.91290979,4,33,0
3.897486369,2,16,10.91290979,-1,33,0
3.897486369,-9,16,10.85475011,-9,33,0
3.903280671,-1,16,10.92565787,-13,33,0
3.90942451,0,16,10.98792064,-4,33,0
3.888444419,-2,16,10.89374132,2,33,0
3.854555746,4,16,10.78213337,12,33,0
3.854555746,1,16,10.88597263,10,33,0
3.854555746,1,16,10.86359057,1,33,0
3.805732518,-3,16,10.74430081,-4,33,0
3.796050579,-1,16,10.63390803,-7,33,0
3.811613831,-1,16,10.7038124,-10,33,0
3.887209796,-3,16,10.95109127,-9,33,0
3.862641583,4,16,10.76893681,7,33,0
3.832701397,2,16,10.53367932,12,33,0
3.842707379,2,16,10.65572147,11,33,0
3.842707379,0,16,10.85769773,5,35,0
3.868281272,3,16,10.94897255,-2,35,0
3.878143886,-3,16,10.88713002,-8,35,0
3.884121522,-4,16,10.89359445,-11,35,0
3.899794866,-2,16,11.05385001,-10,35,0
3.878968935,0,16,11.05385001,0,35,0
3.797946814,3,16,10.85725564,10,35,0
3.814498656,-3,16,10.87398731,10,35,0
3.804681327,5,16,10.92842166,6,35,0
3.73207717,0,16,10.83726903,-1,35,0
3.621546631,-3,16,10.67850177,-7,35,0
3.561123418,1,16,10.63887212,-8,35,0
3.645545227,-6,16,10.93583102,-14,35,0
3.676084874,0,16,10.98954048,2,35,0
3.642197139,4,16,10.8314542,9,35,0
3.616628264,3,16,10.81371352,11,35,0
3.634776472,3,16,10.91181012,8,35,0
3.697620857,3,16,10.91181012,3,35,0
3.627671429,-4,16,10.80710877,-6,35,0
3.590264614,-4,16,10.73172866,-9,35,0
3.593549777,0,16,10.90667685,-14,35,0
3.618894859,-4,16,10.878897,-1,35,0
3.618894859,4,16,10.76022305,7,35,0
3.612699821,5,16,10.70693233,10,35,0
3.659289549,1,16,10.8614732,11,35,0
3.692641331,2,16,10.88404337,0,35,0
3.641098735,-5,16,10.81177136,-5,35,0
3.647519705,0,16,10.77560207,-5,35,0
3.637361681,-3,16,10.9068969,-15,35,0
3.590208908,3,16,10.88051469,-2,35,0
3.465025252,-5,15,10.67222563,6,35,0
3.393464307,1,15,10.5561546,7,35,0
3.407110212,0,15,10.60973138,9,35,0
3.592269478,11,15,10.69624233,6,35,0
3.509985755,-5,15,10.59262007,-5,35,0
3.2994545,-3,15,10.44222199,-7,35,0
3.334006599,-4,15,10.5653017,-14,35,0
3.38490768,-1,15,10.75739745,-5,35,0
3.38490768,3,15,10.69446586,7,35,0
3.351954654,1,15,10.58393122,11,35,0
3.389159188,4,15,10.71552145,11,35,0
3.389159188,-2,15,10.69633582,-2,35,0
3.389159188,1,15,10.63834574,-1,35,0
3.389454233,-2,15,10.59403606,-5,35,0
3.383784863,0,15,10.63924809,-11,35,0
3.401411472,-4,15,10.72074624,-6,35,0
3.311132737,3,15,10.5308879,2,35,0
3.311132737,-1,15,10.41798445,9,35,0
3.31662479,3,15,10.47520883,10,35,0
3.357141641,3,15,10.47520883,4,35,0
3.34119739,-5,15,10.31637533,-1,33,0
3.251092124,1,15,10.1132784,-7,33,0
3.237282811,-2,15,10.07732107,-8,33,0
3.290045592,-3,15,10.27470681,-11,33,0
3.313246142,0,15,10.30194156,0,33,0
3.284874427,3,15,10.13360745,11,33,0
3.285665838,2,15,10.18510677,12,33,0
3.269556545,2,15,10.31472734,5,33,0
3.299757567,1,15,10.33876201,0,33,0
3.2938731,-3,15,10.26935246,-6,33,0
3.292962192,1,15,10.25360424,-7,33,0
3.354101966,-6,15,10.45187065,-15,33,0
3.395526469,-3,16,10.387608,-1,32,0
3.267353669,8,16,10.18903332,9,32,0
3.262146533,2,16,10.14891127,10,32,0
3.31662479,2,16,10.34748279,12,32,0
3.482814953,4,16,10.42322407,0,32,0
3.372180304,-8,16,10.28834292,-6,32,0
3.358809313,-1,16,10.21637901,-7,32,0
3.358809313,-1,16,10.40699765,-16,32,0
3.349985075,2,16,10.40699765,0,32,0
3.247398959,0,16,10.23710897,7,32,0
3.24936917,2,16,10.17308213,8,32,0
3.233635725,0,16,10.32697439,12,32,0
3.181257613,-2,16,10.3035722,-1,32,0
3.074345459,2,16,10.20478319,-4,32,0
3.071221255,-3,16,10.14630967,-7,32,0
3.109726676,-3,16,10.30341691,-14,32,0
3.330165161,-5,17,10.47436872,-5,33,0
3.444473835,2,17,10.42552637,6,33,0
3.427885646,4,17,10.36694748,11,33,0
3.430510166,5,17,10.46137658,11,33,0
3.447259781,1,17,10.58453589,4,33,0
3.324093861,2,17,10.55946968,-1,33,0
3.28730893,-6,17,10.49312156,-10,33,0
3.292415527,-1,17,10.58421466,-13,33,0
3.292415527,-2,17,10.63270427,-4,33,0
3.250599945,1,17,10.49649465,2,33,0
3.244749605,2,17,10.40001923,12,33,0
3.263372489,3,17,10.51020457,11,33,0
3.287613116,2,17,10.53329958,2,33,0
3.281706873,-4,17,10.53329958,-3,33,0
3.263372489,0,17,10.46816125,-7,33,0
3.263188625,-1,17,10.50236164,-10,33,0
3.29781746,-3,17,10.66772703,-8,33,0
3.280243893,1,17,10.66772703,2,33,0
3.297028966,0,17,10.5583332,11,33,0
3.311555526,5,17,10.6853919,14,33,0
3.395526469,3,17,10.77977736,1,33,0
3.341915618,-4,17,10.77977736,-1,33,0
3.342095151,-1,17,10.70409268,-6,33,0
3.342095151,0,17,10.7008224,-9,33,0
3.457687088,-7,17,10.9241201,-13,33,0
3.406816696,5,17,10.89763277,2,33,0
3.348074073,1,17,10.69579357,11,33,0
3.341616375,1,17,10.73342443,11,33,0
3.358571125,2,17,10.82628283,5,33,0
3.341616375,-2,17,10.80414735,-1,33,0
3.341616375,3,17,10.6976633,-5,33,0
3.348074073,-5,17,10.66075044,-9,33,0
3.347894861,0,17,10.8451095,-12,33,0
3.41227197,-5,17,10.8451095,-1,33,0
3.263372489,4,17,10.63956766,9,33,0
3.263372489,3,17,10.60332023,10,33,0
3.263372489,2,17,10.76863965,10,33,0
3.207553585,-1,17,10.69624233,-2,33,0
2.976172038,0,14,10.55062083,-4,32,0
3.010382036,-5,14,10.47910302,-7,32,0
3.044273312,0,14,10.68950888,-16,32,0
3.24936917,-5,14,10.74497092,-1,32,0
3.294905158,4,14,10.62254207,8,32,0
3.367432256,9,14,10.57924383,10,32,0
3.482814953,2,15,10.75546373,12,32,0
3.468947967,-5,15,10.77977736,0,32,0
3.47706773,0,15,10.74037243,-4,32,0
3.464101615,-4,15,10.68795584,-8,32,0
3.489469874,-1,15,10.80275891,-13,32,0
3.534119409,-2,15,10.88294078,-5,32,0
3.361487766,3,15,10.71604405,4,30,0
3.251830254,3,15,10.57627534,12,30,0
3.280487769,3,15,10.67925091,11,30,0
3.3,0,15,10.7643114,3,30,0
3.325296979,1,15,10.67925091,-4,30,0
3.226701102,-4,15,10.5319324,-11,30,0
3.257974831,-4,15,10.64142848,-10,30,0
3.257974831,2,15,10.78636176,-5,30,0
3.231098884,0,15,10.69758851,6,30,0
3.258465897,5,15,10.56325707,12,30,0
3.279573143,-1,15,10.71307612,11,30,0
3.279573143,0,15,10.7335735,-1,30,0
3.234872486,0,15,10.7335735,1,30,0
3.255088324,0,15,10.67737796,-7,30,0
3.317890896,2,15,10.67634769,-8,30,0
3.352610923,-8,15,10.81665383,-12,30,0
3.352610923,0,15,10.74022346,2,30,0
3.335925659,4,15,10.57778805,10,30,0
3.335625878,2,15,10.65465157,12,30,0
3.353147775,1,15,10.67672234,3,30,0
3.299757567,0,15,10.65465157,-1,30,0
3.352610923,1,15,10.57145212,-5,30,0
3.389631248,-8,15,10.57166023,-12,30,0
3.548295365,-4,15,10.78027829,-10,30,0
3.436335257,6,15,10.72380529,1,30,0
3.447665877,-1,15,10.5582006,9,30,0
3.46554469,5,15,10.58695424,12,30,0
3.54964787,3,15,10.70373766,7,30,0
3.54964787,-3,15,10.66135076,-3,30,0
3.581117144,1,15,10.5907318,-3,30,0
3.556177723,-5,15,10.55289534,-9,30,0
3.584633873,-2,15,10.76728378,-14,30,0
3.578603079,4,15,10.74186204,2,30,0
3.453983208,0,15,10.54872504,8,30,0
3.432550072,0,15,10.51134625,7,30,0
3.436800838,1,15,10.60271663,9,30,0
3.426718547,0,15,10.53544494,0,30,0
3.485742389,-6,15,10.42926651,-6,30,0
3.516873612,1,15,10.37890168,-7,30,0
3.567912555,-2,15,10.56880315,-12,30,0
3.567912555,2,15,10.54134716,0,30,0
3.355234716,4,14,10.34154727,7,30,0
3.30266559,2,14,10.28202315,10,30,0
3.263678906,0,14,10.43051293,10,30,0
3.402116988,7,17,10.51558843,4,33,0
3.398175981,-9,17,10.41170495,-8,33,0
3.395820961,-1,17,10.33084701,-6,33,0
3.382306905,-1,17,10.47350944,-15,33,0
3.407579786,-3,17,10.66675208,-6,35,0
3.350761108,1,17,10.53876653,7,35,0
3.336824838,2,17,10.39732658,10,35,0
3.350462655,4,17,10.48467453,11,35,0
3.330405381,-4,17,10.50554139,2,35,0
3.298727027,2,17,10.38491213,-4,35,0
3.249615362,-2,17,10.29765022,-6,35,0
3.287795614,-2,17,10.37813085,-11,35,0
3.287795614,0,17,10.47847317,-6,35,0
3.341915618,-1,17,10.39471019,2,35,0
3.341915618,3,17,10.2991456,11,35,0
3.304542328,2,17,10.38670304,12,35,0
3.304542328,2,17,10.46754986,6,35,0
3.377632307,3,17,10.57007096,0,35,0
3.377632307,-3,17,10.44030651,-11,35,0
3.363866823,-4,17,10.43588041,-10,35,0
3.352610923,-3,17,10.70633457,-12,35,0
3.374551822,0,17,10.73314493,2,35,0
3.345504446,5,17,10.62261738,10,35,0
3.344009569,-1,17,10.69259557,14,35,0
3.388450974,5,17,10.75553811,4,35,0
3.35594994,-3,17,10.73277224,-1,35,0
3.336405251,1,17,10.63392684,-6,35,0
3.269556545,-4,17,10.59237462,-8,35,0
3.352372294,-5,17,10.80520245,-14,35,0
3.279268211,1,16,10.8333559,0,35,0
3.325597691,1,16,10.69955139,9,35,0
3.338502658,7,16,10.72240645,14,35,0
3.38443496,2,16,10.85644509,7,35,0
3.38443496,1,16,10.8319712,-1,35,0
3.370519248,-4,16,10.76663364,-6,35,0
3.370519248,2,16,10.7116572,-5,35,0
3.368619895,-3,16,10.86515531,-15,35,0
3.368619895,-4,16,10.79140399,1,35,0
3.366660066,3,16,10.6686269,6,35,0
3.368323025,-1,16,10.64826746,8,35,0
3.390339216,4,16,10.77485963,10,35,0
3.390339216,-1,16,10.79557317,0,35,0
3.38017751,-2,16,10.73090863,-5,35,0
3.332806625,-1,16,10.7101634,-6,35,0
3.332806625,-2,16,10.86454785,-14,35,0
3.304542328,-1,16,10.9194139,-3,35,0
3.274385439,5,16,10.78408086,9,35,0
3.272980293,-1,16,10.73975791,9,35,0
3.2926585,4,16,10.88147049,11,35,0
3.279085238,-2,16,10.85926333,-1,35,0
2.981610303,0,12,10.67110116,-3,34,0
2.978858842,-2,12,10.59781109,-9,34,0
2.993058636,-2,12,10.70140178,-11,34,0
3.042959086,-2,12,10.86543142,-7,34,0
3.042959086,0,12,10.70140178,6,34,0
3.042959086,1,12,10.59056184,11,34,0
3.068615323,6,12,10.70057942,12,34,0
3.153664535,3,12,10.71972015,0,34,0
3.22217318,-1,12,10.76707946,3,34,0
3.243701589,-2,12,10.72434613,-10,34,0
3.243701589,-4,12,10.78237451,-12,34,0
3.295815529,-4,12,10.94283327,-8,34,0
3.295815529,2,12,10.84796755,5,34,0
3.241049213,4,12,10.68885401,11,34,0
3.256316938,2,12,10.80971785,12,34,0
3.275423637,0,12,10.89420029,2,34,0
3.318132005,2,12,10.86675665,1,34,0
3.2444414,-2,12,10.66135076,-10,33,0
3.22961298,-4,12,10.66585205,-10,33,0
3.258465897,-2,12,10.85248359,-10,33,0
3.287856445,-2,12,10.79349804,0,33,0
3.264597984,2,12,10.60507426,10,33,0
3.268271715,2,12,10.60942977,11,33,0
3.334006599,6,12,10.71307612,8,33,0
3.290045592,-2,12,10.71307612,-1,33,0
3.346640106,2,12,10.67372475,-3,33,0
3.327221063,-4,12,10.64445395,-10,33,0
3.377869151,-5,12,10.85511861,-15,33,0
3.343291791,-1,11,10.79933331,1,33,0
3.314272167,1,11,10.58950424,8,33,0
3.275606814,7,11,10.5568177,11,33,0
3.275606814,0,11,10.68690788,9,33,0
3.219254572,-1,11,10.64069547,-2,33,0
3.120512778,-1,11,10.53415398,-5,33,0
3.116472365,-2,11,10.49397923,-6,33,0
3.074800807,0,11,10.68316433,-15,33,0
3.155693268,-4,11,10.73575335,-1,33,0
3.177986784,1,11,10.67640389,6,33,0
3.177986784,4,11,10.64107137,10,33,0
3.249676907,5,11,10.76514747,11,33,0
3.45722432,4,14,10.86500805,4,34,0
3.512491993,-4,14,10.84479599,-5,34,0
3.54964787,-1,14,10.82449075,-6,34,0
3.560280888,-6,14,10.96410507,-17,34,0
3.818690875,-8,19,11.13956911,-7,35,0
3.843383926,5,19,11.01635148,8,35,0
3.849987013,7,19,10.96860976,12,35,0
3.857667689,0,19,11.08721787,11,35,0
3.857667689,2,19,11.11051754,2,35,0
3.857667689,-2,19,11.05665411,-5,35,0
3.849987013,-2,19,10.99636304,-6,35,0
3.849987013,0,19,11.07481828,-12,35,0
3.849987013,-2,19,11.14335677,-5,35,0
3.830456892,-1,19,10.93698313,4,35,0
3.8,6,19,10.79979629,13,35,0
3.785445813,0,19,10.89405342,8,35,0
3.785445813,0,19,10.9825498,4,35,0
3.71030996,-1,19,10.9825498,-4,35,0
3.652998768,-2,19,10.82301252,-10,35,0
3.66218514,-3,19,10.86500805,-8,35,0
3.731005226,-2,19,10.99019563,-7,35,0
3.67151195,3,19,10.88501723,2,35,0
3.643130522,2,19,10.7684725,10,35,0
3.643130522,1,19,10.8480413,12,35,0
3.66081958,3,19,10.86957221,3,35,0
3.701026885,1,19,10.82458313,-1,35,0
3.66081958,-2,19,10.66020638,-6,35,0
3.648616176,-1,19,10.65299958,-9,35,0
3.718548104,-7,19,10.87435515,-13,35,0
3.827531842,-2,19,10.90321054,0,35,0
3.784230437,4,19,10.72360014,10,35,0
3.757658846,3,19,10.74757647,14,35,0
3.755316232,1,19,10.8614732,5,35,0
3.815966457,6,19,10.81630251,-1,35,0
3.912850623,0,19,10.72522261,-4,35,0
3.860362677,-8,19,10.64347688,-9,35,0
3.871382182,-1,19,10.83330051,-13,35,0
3.852272057,-1,19,10.83330051,-1,35,0
3.827740848,-1,19,10.69399832,8,35,0
3.780211634,4,19,10.66815823,11,35,0
3.76196757,1,19,10.77198218,8,35,0
3.741657387,-1,19,10.70543787,-1,35,0
3.821203999,6,19,10.63435941,-3,35,0
3.821203999,-5,19,10.59388503,-7,35,0
3.844788681,-4,19,10.83787802,-17,35,0
3.910805544,-2,19,10.89309873,0,35,0
3.867815921,2,19,10.74363067,8,35,0
3.822302971,4,19,10.66478317,9,35,0
3.904305316,5,19,10.81140139,12,35,0
3.930190835,0,19,10.85725564,1,35,0
3.820418825,0,17,10.7373181,-3,34,0
3.763190136,-6,17,10.63249735,-10,34,0
3.729289477,-1,17,10.77109094,-14,34,0
3.729289477,-1,17,10.81896483,-1,34,0
3.435112807,3,14,10.52617689,7,31,0
3.382839044,3,14,10.41170495,10,31,0
3.39411255,-1,14,10.53709637,9,31,0
3.388746081,-2,14,10.55956438,1,31,0
3.388746081,3,14,10.47299384,-3,31,0
3.419005703,-7,14,10.40607515,-8,31,0
3.424675167,2,14,10.50083806,-12,31,0
3.623534186,-7,15,10.76566765,-9,34,0
3.685430775,3,15,10.79251593,4,34,0
3.670476808,3,15,10.71417752,11,34,0
3.651246363,3,15,10.77961038,13,34,0
3.791780584,7,16,10.87389535,6,34,0
3.856889939,-2,16,10.90183471,1,35,0
3.883761064,-2,16,10.85091701,-8,35,0
3.884121522,-3,16,10.8853112,-14,35,0
3.884121522,-4,16,11.13488213,-12,35,0
3.884121522,-2,16,11.11080555,5,35,0
3.884378972,8,16,10.98114748,12,35,0
3.888907302,-1,16,11.10135127,13,35,0
3.903280671,1,16,11.20937108,3,35,0
3.92306003,2,16,11.25737092,0,35,0
3.873809495,-4,16,11.16618108,-9,35,0
3.858756276,-1,16,11.1539948,-10,35,0
4.031128874,-8,16,11.37534175,-12,35,0
4.059753687,2,16,11.37534175,0,35,0
3.953530068,3,16,11.17919496,10,35,0
3.925098725,4,16,11.1967138,14,35,0
3.940812099,2,16,11.28576094,5,35,0
3.95580586,0,16,11.28576094,0,35,0
3.879381394,1,16,11.20564144,-6,35,0
3.766218262,-4,16,11.15492716,-8,35,0
3.775923728,-2,16,11.33137238,-13,35,0
3.762392856,3,16,11.2853179,2,35,0
3.73207717,0,16,11.10416138,7,35,0
3.683693798,-2,16,11.06744776,9,35,0
3.688685403,3,16,11.19599929,9,35,0
3.719623637,2,16,11.17656477,-2,35,0
3.719623637,-4,16,11.11613242,-4,35,0
3.656282265,-2,16,11.06506213,-7,35,0
3.687221176,-1,16,11.3287069,-17,35,0
3.656282265,4,16,11.30125657,2,35,0
3.606937759,-4,16,11.12834219,7,35,0
3.577708764,5,16,11.06686948,9,35,0
3.630096417,3,16,11.20694428,12,35,0
3.550549253,-5,16,11.20694428,0,35,0
3.465313839,1,16,11.10898735,-4,35,0
3.41227197,3,16,11.01978221,-5,35,0
3.41227197,-4,16,11.13375049,-15,35,0
3.440290685,-3,16,11.24172585,-6,35,0
3.440290685,1,16,11.13797109,8,35,0
3.440290685,3,16,11.0934395,11,35,0
3.49336514,5,16,11.20756887,10,35,0
3.595830919,1,16,11.30309692,4,35,0
3.676955262,-1,16,11.26261071,-5,35,0
3.651027253,-7,16,11.18391702,-9,35,0
3.651027253,-2,16,11.24277546,-10,35,0
3.699513482,-1,16,11.44195787,-10,35,0
3.584689666,-1,16,11.2960347,4,34,0
3.498571137,5,16,11.08889535,13,34,0
3.483905854,2,16,11.18715335,13,34,0
3.498799794,1,16,11.23921705,0,34,0
3.35791602,0,15,11.15175323,-1,34,0
3.275423637,-1,15,10.94758421,-7,34,0
3.238579936,-2,15,10.92023809,-9,34,0
3.297028966,-4,15,11.04326039,-8,34,0
3.297028966,1,15,10.92585923,-1,34,0
3.225461207,1,15,10.77359736,11,34,0
3.205557674,3,15,10.83911435,12,34,0
3.237838785,3,15,10.86110492,4,34,0
3.217203755,-4,15,10.78932806,-1,34,0
3.148396417,0,15,10.62,-6,34,0
3.148396417,1,15,10.59879238,-9,34,0
3.268088126,-7,15,10.82375166,-13,34,0
3.179245193,0,13,10.82375166,0,34,0
3.063396807,8,13,10.59879238,12,34,0
3.047687648,1,13,10.61726895,12,34,0
3.112619476,2,13,10.73528761,6,34,0
3.099935483,-3,13,10.71300145,-2,34,0
3.080519437,-1,13,10.59433811,-6,34,0
3.045586971,-2,13,10.55378605,-7,34,0
3.106444913,-3,13,10.79520264,-15,34,0
3.106444913,2,13,10.79520264,2,34,0
3.121281788,0,13,10.70693233,7,34,0
3.121281788,3,13,10.69018241,10,34,0
3.18596924,4,13,10.87766519,12,34,0
3.354042337,3,14,10.92741506,0,34,0
3.354042337,-4,14,10.90900545,-5,34,0
3.36,-2,14,10.87126488,-8,34,0
3.36,-4,14,11.05515264,-16,34,0
3.323191237,2,14,10.94533691,1,34,0
3.342095151,-2,14,10.78007421,6,34,0
3.305086988,2,14,10.71486817,7,34,0
3.2994545,1,14,10.8359402,12,34,0
3.2444414,-2,14,10.81408341,0,34,0
3.263433774,4,14,10.72223857,-4,34,0
3.263433774,-2,14,10.65662235,-6,34,0
3.26042942,-4,14,10.83219276,-16,34,0
3.26042942,3,14,10.92792753,-1,34,0
3.225461207,0,14,10.71888054,7,34,0
3.244749605,4,14,10.64518671,11,34,0
3.262453065,-1,14,10.74632961,8,34,0
3.262453065,3,14,10.81805898,4,34,0
3.151190251,-3,14,10.6980559,-4,33,0
3.052146785,-3,14,10.59360184,-10,33,0
3.082920693,-3,14,10.708576,-12,33,0
3.107667936,-1,14,11.01700504,-9,35,0
3.107667936,0,14,10.85349713,8,35,0
3.019933774,3,14,10.67333125,10,35,0
3.019933774,1,14,10.75934942,12,35,0
3.033743562,3,14,10.7198694,0,35,0
3.012573651,-2,14,10.66290767,-1,35,0
2.998399573,1,14,10.56728915,-5,35,0
2.990718977,-1,14,10.58770986,-10,35,0
3.008321791,-3,14,10.80103699,-10,35,0
2.98288451,-1,14,10.82554387,2,35,0
2.945437149,3,14,10.64986385,12,35,0
2.947812748,3,14,10.75139061,13,35,0
3.014365605,2,14,10.83071558,2,35,0
3.154425463,3,14,10.85497121,1,35,0
3.187726463,-4,14,10.74856269,-9,35,0
3.195309062,-5,14,10.72559555,-8,35,0
3.261901286,-3,14,10.92336944,-12,35,0
3.261901286,-2,14,10.92336944,-1,35,0
3.224220836,1,14,10.72194012,10,35,0
3.218695388,6,14,10.73871501,12,35,0
3.218695388,2,14,10.83374358,7,35,0
3.248938288,3,14,10.83374358,1,35,0
3.277865159,-2,14,10.76157981,-6,35,0
3.277865159,-3,14,10.72986486,-8,35,0
3.36505572,-6,14,10.96357606,-16,35,0
3.430510166,-1,14,10.93561155,1,35,0
3.471310992,2,14,10.81556286,7,35,0
3.459710971,3,14,10.77079384,9,35,0
3.515679166,6,14,10.93881164,13,35,0
3.49336514,-1,14,10.86611246,-2,35,0
3.389631248,1,14,10.73500815,-3,35,0
3.37194306,-2,14,10.64610727,-7,35,0
3.371409201,-4,14,10.84575493,-17,35,0
3.513459833,-6,15,10.92902557,-2,35,0
3.518181348,6,15,10.85100917,8,35,0
3.521874501,4,15,10.8105319,10,35,0
3.606715958,3,15,10.99136024,13,35,0
3.622650963,-3,15,11.01388215,-1,35,0
3.667424164,2,15,10.97422435,-3,35,0
3.66,-6,15,10.91963369,-8,35,0
3.666551513,0,15,11.04253594,-14,35,0
3.715965554,-4,15,11.15526781,-6,35,0
3.826695703,-1,15,11.1299416,4,35,0
3.826695703,6,15,11.07790594,15,35,0
3.87406763,6,15,11.22319028,12,35,0
4.30088363,8,21,11.46767631,7,40,0
4.327817002,-7,21,11.44265703,-6,40,0
4.315599611,-6,21,11.35950703,-9,40,0
4.363897341,-5,21,11.44498143,-15,40,0
4.499955555,-4,22,11.71646704,-11,41,0
4.578602407,1,22,11.59525765,5,41,0
4.53977973,6,22,11.47736904,14,41,0
4.539647563,3,22,11.56029411,12,41,0
4.581528129,3,22,11.56029411,0,41,0
4.581528129,-2,22,11.57818639,1,41,0
4.581528129,-2,22,11.53055072,-6,41,0
4.577728694,0,22,11.53055072,-9,41,0
4.58296847,-2,22,11.69069716,-11,41,0
4.57383865,0,22,11.59601656,3,41,0
4.556489877,4,22,11.42775569,11,41,0
4.555480216,-2,22,11.50728465,11,41,0
4.555480216,2,22,11.54774437,3,41,0
4.526588119,0,22,11.52668209,-1,41,0
4.405496567,-3,22,11.3906804,-6,41,0
4.378310176,1,22,11.37358343,-8,41,0
4.497821695,-8,22,11.58669927,-14,41,0
4.48058032,4,22,11.56200675,2,41,0
4.414340268,0,22,11.37189518,8,41,0
4.350816015,2,22,11.36936234,12,41,0
4.364218143,4,22,11.48196847,7,41,0
4.417646432,3,22,11.50478161,1,41,0
4.355272667,-4,22,11.4074537,-5,41,0
4.327770789,-1,22,11.35492845,-8,41,0
4.394360022,-6,22,11.57818639,-17,41,0
4.394360022,0,22,11.55164058,1,41,0
4.327077536,2,22,11.39910523,8,41,0
4.281354926,3,22,11.34423201,9,41,0
4.344007366,6,22,11.50693704,12,41,0
4.299581375,-5,22,11.46326306,-2,41,0
4.276634191,1,22,11.41032865,-3,41,0
4.233202098,-3,22,11.34423201,-8,41,0
4.217866759,2,22,11.49058745,-14,41,0
4.226629863,-3,22,11.51737817,-3,41,0
4.099804873,1,22,11.30707743,9,41,0
4.142897537,6,22,11.24412736,11,41,0
4.226629863,2,22,11.42936569,11,41,0
4.157691667,-6,22,11.40682252,-2,41,0
4.143669871,-1,22,11.33350784,-4,41,0
4.094337553,1,22,11.25502554,-7,41,0
4.117717815,-4,22,11.38463877,-14,41,0
4.278130433,-5,22,11.54207954,-6,41,0
4.238112788,5,22,11.38463877,6,41,0
4.142463035,3,22,11.20515953,12,41,0
4.157932178,3,22,11.32254388,12,41,0
4.113830332,1,22,11.32254388,1,41,0
3.667642294,0,15,11.10163952,-1,36,0
3.54761892,-2,15,10.93853738,-9,36,0
3.54541958,-2,15,10.9762653,-11,36,0
3.510042735,-2,15,11.20944245,-11,36,0
3.344009569,-1,15,10.99061418,5,34,0
3.197561571,1,15,10.76232317,11,34,0
3.2,4,15,10.82774215,12,34,0
3.257053883,3,15,10.93846424,6,34,0
3.257053883,0,15,11.0740959,1,35,0
3.257053883,-2,15,11.01310129,-9,35,0
3.257053883,-2,15,11.01228405,-11,35,0
3.31517722,-5,15,11.2332364,-12,35,0
3.394348244,-1,15,11.26099463,0,35,0
3.394348244,4,15,11.13238519,14,35,0
3.381183225,3,15,11.19687456,11,35,0
3.381183225,-1,15,11.27845734,5,35,0
3.400235286,3,15,11.27845734,-1,35,0
3.419064199,0,15,11.21115516,-5,35,0
3.419064199,-4,15,11.18527604,-9,35,0
3.432550072,-2,15,11.3607042,-13,35,0
3.307204257,-1,15,11.28306696,1,35,0
3.273469108,3,15,11.1173558,9,35,0
3.238579936,1,15,11.12943844,12,35,0
3.238765197,1,15,11.23921705,5,35,0
3.226453161,0,15,11.19921426,-2,35,0
3.129792325,-2,15,11.06526095,-5,35,0
3.138470965,-2,15,11.00181803,-7,35,0
3.142037555,1,15,11.23816711,-15,35,0
3.056861135,0,15,11.21042372,1,35,0
2.979932885,-1,15,11.04999548,8,35,0
2.940816213,2,15,11.00379934,9,35,0
2.98134198,4,15,11.14227984,11,35,0
3.066528982,4,16,11.14227984,1,35,0
3.195309062,-1,16,11.12275146,-3,35,0
3.190235101,-6,16,11.06390528,-8,35,0
3.223414339,-4,16,11.27420064,-18,35,0
3.395526469,-4,16,11.38112472,-2,35,0
3.383784863,6,16,11.22418817,8,35,0
3.394642838,4,16,11.17656477,9,35,0
3.371409201,1,16,11.28398866,12,35,0
3.335925659,2,16,11.25920068,2,35,0
3.342154993,-7,16,11.16976275,-6,35,0
3.348074073,0,16,11.10281046,-7,35,0
3.353565267,0,16,11.19194353,-11,35,0
3.440290685,-5,16,11.3835671,-9,35,0
3.244996148,4,15,11.22497216,7,35,0
3.207241806,2,15,11.09466538,11,35,0
3.224220836,3,15,11.21643437,13,35,0
3.265639294,2,15,11.23786457,1,35,0
3.265639294,-1,15,11.1967138,-2,35,0
3.231098884,-3,15,11.09459328,-6,35,0
3.225895225,-1,15,11.12230192,-11,35,0
3.263433774,-3,15,11.19457011,-6,35,0
3.244749605,3,15,10.99761792,0,35,0
3.206243908,0,15,10.80964384,12,35,0
3.190235101,2,15,10.86324077,9,35,0
3.185027472,-1,15,10.96175168,5,35,0
3.160759402,3,15,10.89185016,-2,35,0
3.0994193,-3,15,10.68316433,-8,33,0
3.08058436,-1,15,10.66922678,-9,33,0
3.174208563,-5,15,10.86638854,-10,33,0
3.118717685,4,15,10.81080941,1,33,0
3.118717685,-4,15,10.60196208,8,33,0
3.131070105,3,15,10.6266834,12,33,0
3.14426462,5,15,10.68316433,6,33,0
3.14426462,-2,15,10.61538506,-1,33,0
3.103288578,-1,15,10.48435024,-6,33,0
3.061045573,1,15,10.42619777,-5,33,0
3.077726434,-3,15,10.61133356,-14,33,0
3.077726434,0,15,10.56267012,2,33,0
3.042630441,2,15,10.41698613,8,33,0
3.059673185,-2,15,10.42268679,9,33,0
3.128961489,7,15,10.54493243,9,33,0
3.120512778,-5,15,10.52190097,-2,33,0
3.111526956,0,15,10.45569701,-5,33,0
3.116472365,-1,15,10.42437528,-6,33,0
3.116472365,-1,15,10.61101315,-15,33,0
3.111526956,2,15,10.52898856,1,33,0
3.107667936,1,15,10.34670962,7,33,0
3.091213354,0,15,10.30293162,9,33,0
3.157467339,4,15,10.47664068,11,33,0
3.123395588,-6,15,10.47664068,-1,33,0
2.927729496,1,14,10.34255288,-6,33,0
2.79635477,-3,13,10.23384581,-8,33,0
2.792848009,3,13,10.36694748,-11,33,0
2.849280611,-5,13,10.39663407,-4,33,0
2.764054992,0,12,10.21363794,6,33,0
2.79170199,8,12,10.13471263,12,33,0
2.884510357,3,12,10.24546729,9,33,0
2.884510357,-2,12,10.26888504,2,33,0
2.847033544,1,12,10.19835281,-2,33,0
2.893371736,-1,12,10.16246033,-6,33,0
2.890051903,-3,12,10.24634569,-14,33,0
2.920890275,-4,12,10.36887651,-6,33,0
2.821630734,0,11,10.07422454,7,30,0
2.804353758,4,11,9.921874823,10,30,0
2.850192976,3,11,10.09483036,12,30,0
2.899724125,1,11,10.2283723,3,33,0
2.871654575,-1,11,10.18510677,-6,33,0
2.8276492,-3,11,10.10087125,-6,33,0
2.826729559,-1,11,10.12719112,-11,33,0
2.845628226,-2,11,10.35181144,-10,33,0
2.944893886,-4,12,10.37668541,3,33,0
2.949983051,5,12,10.22741414,12,33,0
2.951677489,2,12,10.35057486,13,33,0
2.94136023,-1,12,10.35057486,-3,33,0
2.949983051,2,12,10.3033975,3,33,0
2.903032897,-1,12,10.18037327,-10,33,0
2.916436181,-3,12,10.19821553,-7,33,0
2.94896592,-1,12,10.39863453,-10,33,0
2.917807396,-1,12,10.39863453,0,33,0
2.928549129,2,12,10.22741414,10,33,0
2.84956137,4,12,10.24,13,33,0
2.858321186,1,12,10.38337132,6,33,0
2.832384155,-3,12,10.36279885,-3,33,0
2.832384155,1,12,10.28793468,-5,33,0
2.837534141,-2,12,10.27636122,-8,33,0
2.852086955,-1,12,10.50531294,-13,33,0
2.895790048,-2,12,10.50531294,1,33,0
2.884510357,3,12,10.38670304,9,33,0
2.884510357,1,12,10.38652974,10,33,0
3.022846341,7,13,10.5381023,9,33,0
3.096837096,0,13,10.5381023,0,33,0
3.195246469,-1,13,10.49916187,-4,33,0
3.213782818,-3,13,10.46634607,-7,33,0
3.244996148,-6,13,10.66538326,-17,33,0
3.353147775,-3,13,10.6931941,-1,33,0
3.353565267,7,13,10.56265118,9,33,0
3.358571125,-2,13,10.52214807,7,33,0
3.395349761,5,13,10.7088935,14,33,0
3.353147775,-1,13,10.68524216,-2,33,0
3.436044237,3,13,10.64330776,-2,33,0
3.451898029,-3,13,10.61660963,-7,33,0
3.451898029,-6,13,10.78749276,-17,33,0
3.458323293,2,13,10.86491601,-2,33,0
3.366006536,1,13,10.67895126,7,33,0
3.266129207,1,13,10.57166023,8,33,0
3.266129207,2,13,10.68644001,12,33,0
3.197248817,0,13,10.70605436,0,33,0
3.168848371,-1,13,10.63091718,-3,33,0
3.11056265,-2,13,10.53383121,-9,33,0
3.09354166,-2,13,10.62090392,-10,33,0
3.366006536,-7,16,10.92336944,-10,37,0
3.416489426,4,16,10.92336944,5,37,0
3.416489426,2,16,10.88634006,10,37,0
3.423682228,5,16,10.92476087,12,37,0
3.404761372,1,16,10.82184827,2,37,0
3.346640106,-1,16,10.63061616,0,35,0
3.312763197,0,16,10.53178048,-5,35,0
3.3346664,1,16,10.51475154,-7,35,0
3.38608919,-7,16,10.71634266,-13,35,0
3.38608919,2,16,10.66163215,2,35,0
3.275912087,1,16,10.5109657,12,35,0
3.275912087,0,16,10.60535714,12,35,0
3.316865991,5,16,10.68084266,5,35,0
3.381656399,1,16,10.78621342,-1,35,0
3.39411255,-2,16,10.69955139,-7,35,0
3.590487432,-11,16,10.72007463,-12,35,0
3.605551275,5,16,10.82960756,-7,35,0
3.577932364,4,16,10.73389025,1,35,0
3.532704347,1,16,10.52425769,9,35,0
3.534119409,1,16,10.56833005,11,35,0
3.584187495,2,16,10.76960538,8,37,0
3.600499965,-1,16,10.74571543,-4,37,0
3.604941054,-2,16,10.71074227,-4,37,0
3.605551275,-2,16,10.6831456,-9,37,0
3.656282265,-4,16,10.86933301,-14,37,0
3.672819081,1,16,10.84215846,0,37,0
3.622650963,2,16,10.68847978,8,37,0
3.616628264,1,16,10.67145726,10,37,0
3.631032911,3,16,10.75367844,7,37,0
3.522782991,-4,16,10.70782891,1,37,0
3.403586344,0,15,10.56643743,-6,37,0
3.307929866,2,15,10.47971374,-5,37,0
3.298545134,-3,15,10.66208235,-15,37,0
3.272246934,1,15,10.68922822,-1,37,0
3.151190251,1,15,10.52237616,8,37,0
3.14985714,0,15,10.4885652,9,37,0
3.167080675,3,15,10.61553578,10,37,0
3.124355934,-3,15,10.54174559,0,37,0
3.110048231,2,15,10.4318934,-5,37,0
3.004263637,-3,14,10.32015504,-7,37,0
2.989916387,-1,14,10.46573457,-13,37,0
3.013303835,-2,14,10.54711335,-3,37,0
3.023177137,2,14,10.43012943,6,37,0
3.02654919,3,14,10.37111373,11,37,0
3.103804118,4,14,10.48482713,10,37,0
3.153664535,0,14,10.53339451,3,37,0
3.174964567,-1,14,10.51201218,-3,37,0
3.167585832,-5,14,10.44536261,-8,37,0
3.180943256,-1,14,10.52313641,-12,37,0
3.167585832,2,14,10.5879932,-4,37,0
2.907163566,-2,13,10.34400309,1,33,0
2.816025568,1,13,10.1201581,11,33,0
2.785677655,3,13,10.1995294,12,33,0
2.8510349,3,13,10.3330344,3,33,0
2.872211691,-1,13,10.41155128,-1,33,0
2.864681483,-4,13,10.35144434,-10,33,0
2.862795836,-1,13,10.38308239,-9,33,0
2.856851414,-1,13,10.59858481,-9,33,0
2.797212899,1,13,10.51429503,2,33,0
2.817374664,-2,13,10.32490194,10,33,0
2.820567319,5,13,10.40132684,13,33,0
2.961148426,5,15,10.51254489,5,33,0
2.987708152,-2,15,10.46258094,-2,33,0
2.920547894,-4,15,10.32093019,-7,33,0
2.898896342,-1,15,10.29415368,-9,33,0
2.685069831,-3,11,10.41516202,-9,33,0
2.685069831,0,11,10.46634607,-2,33,0
2.757462602,-1,11,10.36959016,9,33,0
2.748745168,4,11,10.41654453,13,33,0
2.771281292,4,11,10.49535135,5,33,0
2.718529014,-1,11,10.36293395,-1,31,0
2.679104328,-1,11,10.24158191,-6,31,0
2.909570415,-10,15,10.18736472,-10,31,0
2.966209703,4,15,10.46947945,-13,32,0
2.913760457,3,15,10.52617689,1,32,0
2.891366459,3,15,10.36331993,11,32,0
2.903032897,-4,15,10.35961389,11,32,0
2.905167809,3,15,10.52471377,8,32,0
2.992056149,5,15,10.59284664,0,32,0
2.996264341,-4,15,10.53610934,-5,32,0
3.026813506,-5,15,10.50668359,-9,32,0
3.083439638,-1,15,10.72373069,-15,32,0
3.124163888,0,15,10.77961038,-1,32,0
3.124163888,3,15,10.61387771,9,32,0
3.126403685,2,15,10.57120618,10,32,0
3.128514024,0,15,10.71651063,10,32,0
3.116664884,-3,15,10.69609274,-2,32,0
3.128194367,4,15,10.62495176,-3,32,0
3.119294792,-1,15,10.58444141,-7,32,0
3.168343416,-5,15,10.72499883,-13,32,0
3.166322788,6,15,10.72499883,-1,32,0
3.111269837,-2,15,10.54142305,5,32,0
3.119294792,3,15,10.44076626,10,32,0
3.160759402,1,15,10.63578864,13,32,0
3.134389893,0,15,10.78302369,2,34,0
3.134389893,1,15,10.80816358,-2,34,0
3.092183694,-4,15,10.72194012,-11,34,0
3.1036108,-3,15,10.78719611,-12,34,0
3.145091414,-2,15,10.92558465,-7,34,0
3.177168551,1,15,10.92558465,2,34,0
3.177168551,1,15,10.78630613,11,34,0
3.172948156,2,15,10.84621593,11,34,0
3.18747549,3,15,10.84621593,2,34,0
3.116664884,-4,15,10.8012777,1,34,0
3.069136686,2,15,10.67822083,-7,34,0
3.069136686,-1,15,10.69250205,-9,34,0
3.078960864,-2,15,10.87494368,-11,34,0
3.117434843,-2,15,10.84759881,1,34,0
3.126723525,2,15,10.71867529,8,34,0
3.098386677,2,15,10.73394615,12,34,0
3.136622387,4,15,10.77226067,6,34,0
3.059411708,1,14,10.72276084,1,34,0
2.978858842,-4,14,10.60605487,-7,34,0
2.986703869,-3,14,10.58279736,-8,34,0
2.989046671,1,14,10.76356818,-12,34,0
2.973281016,-1,14,10.8122893,0,34,0
2.95945941,4,14,10.64941313,9,34,0
2.93428015,1,14,10.65127222,11,34,0
2.984560269,1,14,10.76802675,8,34,0
2.94896592,-6,14,10.69048175,-5,34,0
2.932302849,4,14,10.59464015,-3,34,0
2.918903904,-2,14,10.56492309,-6,34,0
2.702887345,-2,10,10.71262806,-13,34,0
2.649981132,4,10,10.59866029,0,33,0
2.671628717,1,10,10.37142227,8,33,0
2.671628717,-1,10,10.34794666,8,33,0
2.676490239,1,10,10.49106286,11,33,0
2.751363298,2,10,10.46672824,-1,33,0
2.794566156,2,11,10.39892302,-2,33,0
2.787471973,-6,11,10.34232082,-7,33,0
2.787471973,-4,11,10.49115818,-16,33,0
2.913142633,-4,14,10.65938085,-8,37,0
2.851315486,6,14,10.5292165,9,37,0
2.844011252,2,14,10.47895033,10,37,0
2.864192731,2,14,10.55840897,11,37,0
2.864192731,-2,14,10.49611357,0,37,0
2.859650328,2,14,10.44459669,-2,37,0
2.891643132,1,14,10.4019229,-4,37,0
2.893095228,-4,14,10.5027425,-14,37,0
2.970589167,-6,14,10.70880012,-9,37,0
3.034534561,2,14,10.68533575,7,37,0
3.034534561,4,14,10.62449999,11,37,0
3.053915519,4,14,10.72919382,12,37,0
3.079545421,1,14,10.78719611,6,37,0
3.136176015,1,14,10.72919382,-2,37,0
3.111269837,-2,14,10.56842467,-8,37,0
3.111269837,-3,14,10.5791493,-12,37,0
3.188792875,-6,14,10.67784622,-8,37,0
3.188792875,1,14,10.62542234,0,37,0
3.188792875,1,14,10.47923661,9,37,0
3.188792875,1,14,10.51781346,11,37,0
3.188479261,3,14,10.50226642,1,37,0
3.170173497,-1,14,10.46525681,1,37,0
3.169605654,2,14,10.34531778,-5,37,0
3.18747549,1,14,10.32567673,-6,37,0
3.194307437,-4,14,10.5234215,-13,37,0
3.213471643,-2,14,10.496266,1,37,0
3.168595904,1,14,10.33433113,9,37,0
3.155249594,1,14,10.37460361,14,37,0
3.277560068,8,14,10.52252821,5,37,0
3.328663395,-1,14,10.57016556,0,37,0
3.289741631,-3,14,10.47427324,-6,37,0
3.29417668,-1,14,10.44796631,-10,37,0
3.339520924,-6,14,10.60658286,-11,37,0
3.339520924,3,14,10.58111525,0,37,0
3.326018641,0,14,10.42757882,7,37,0
3.402116988,7,14,10.45770529,14,37,0
3.46554469,0,14,10.6020564,6,37,0
3.46554469,-2,14,10.57763679,-1,37,0
3.451608321,-5,14,10.53802638,-7,37,0
3.450449246,1,14,10.51939162,-9,37,0
3.545645216,-5,14,10.76475731,-13,37,0
3.587812704,1,14,10.8451095,0,37,0
3.591322876,3,14,10.73389025,9,37,0
3.606937759,5,14,10.73090863,12,37,0
3.709447398,3,14,10.94941094,11,37,0
3.743581173,-2,14,10.97489863,-1,37,0
3.697620857,-5,14,10.89809158,-6,37,0
3.645490365,-4,14,10.79409098,-8,37,0
3.757073329,-2,14,11.04601286,-18,37,0
3.757073329,3,14,11.17463198,0,37,0
3.661475113,-1,13,10.92490732,6,36,0
3.656282265,4,13,10.81362104,12,36,0
3.672873534,3,13,10.91787525,10,36,0
3.71057947,2,13,11.00225431,3,36,0
3.762392856,0,13,11.00225431,-4,36,0
3.747479153,-4,13,10.95008676,-9,36,0
3.73207717,-3,13,11.05071943,-12,36,0
3.747479153,0,13,11.19078192,-5,36,0
3.64,1,13,10.95490758,6,34,0
3.583294573,1,13,10.8240473,13,34,0
3.597832681,3,13,10.94277844,9,34,0
3.713812058,5,14,11.0323343,3,34,0
3.678314832,-5,14,10.86830254,-5,33,0
3.600499965,-3,14,10.67850177,-7,33,0
3.584466487,-2,14,10.69842979,-11,33,0
3.584466487,3,14,10.80895925,-4,33,0
3.505481422,-2,14,10.78593529,0,33,0
3.464621191,-1,14,10.63082311,10,33,0
3.446737588,0,14,10.68473678,11,33,0
3.431850813,4,14,10.79112598,4,33,0
3.446969684,1,14,10.86073662,-1,33,0
3.446969684,-3,14,10.80599833,-8,33,0
3.443486605,0,14,10.82147864,-9,33,0
3.517044214,-5,14,11.05696161,-11,33,0
3.567688327,1,14,11.05696161,1,33,0
3.539774004,3,14,10.90924379,9,33,0
3.522271994,2,14,10.93661739,14,33,0
3.520738559,1,14,11.01301049,5,33,0
3.458843737,3,14,10.98946769,0,33,0
3.3717058,-5,14,10.84968202,-7,33,0
3.35791602,-1,14,10.79629566,-7,33,0
3.465775526,-5,14,11.0287624,-15,33,0
3.562920151,-1,15,11.07906133,1,33,0
3.586864926,4,15,10.97087052,8,33,0
3.592714851,5,15,10.94475217,10,33,0
3.562920151,3,15,11.03818826,10,33,0
3.463870667,-5,15,10.97139918,-2,33,0
3.42928564,2,15,10.87683778,-3,33,0
3.437499091,0,15,10.84796755,-6,33,0
3.449579685,-4,15,11.0176041,-16,33,0
3.387270287,0,15,10.98974067,-1,33,0
3.346640106,4,15,10.80090737,8,33,0
3.408460063,3,15,10.76157981,10,33,0
3.462715697,1,15,10.8901607,10,33,0
3.37194306,-2,15,10.83625397,1,32,0
3.346879143,0,15,10.70568074,-5,32,0
3.361904222,-6,15,10.63195184,-9,32,0
3.312099032,1,15,10.7424392,-11,32,0
3.276827734,-4,15,10.7745812,-7,33,0
3.328903723,0,15,10.64075185,6,33,0
3.272674747,5,15,10.5277538,11,33,0
3.335925659,5,15,10.65879918,13,33,0
3.354042337,-1,15,10.75339946,3,33,0
3.311555526,-1,15,10.66630208,-5,33,0
3.247214191,-3,15,10.57924383,-8,33,0
3.24616697,0,15,10.67303143,-12,33,0
3.315478849,-5,15,10.92851317,-10,35,0
3.354340472,1,15,10.90056879,5,35,0
3.354340472,3,15,10.81896483,12,35,0
3.363391146,3,15,10.88575216,12,35,0
3.382543422,2,15,10.90863878,4,35,0
3.301878253,2,13,10.93692827,3,36,0
3.377869151,0,13,10.86822893,-11,36,0
3.392992779,-8,13,10.9024034,-12,36,0
3.40916412,-1,13,11.07248843,-9,36,0
3.437208169,0,13,11.11784152,2,36,0
3.437208169,2,13,11.007343,10,36,0
3.423448554,1,13,11.06497176,12,36,0
3.449289782,4,13,11.14450537,5,36,0
3.48,0,13,11.16868837,1,36,0
3.48,-1,13,11.09668419,-6,36,0
3.48,-3,13,11.08873302,-11,36,0
3.532930795,-4,13,11.26232658,-12,36,0
3.4525353,5,13,11.18679579,2,36,0
3.42981049,-4,13,11.01092185,8,36,0
3.430685063,5,13,11.02295786,12,36,0
3.465313839,2,13,11.14012567,7,36,0
3.476550014,-1,13,11.14012567,-1,36,0
3.424908758,-1,13,11.04718969,-5,36,0
3.430510166,0,13,11.01635148,-9,36,0
3.459768778,-5,13,11.21434795,-14,36,0
3.333226665,4,13,11.13784539,2,36,0
3.153981611,1,11,10.9589963,8,36,0
3.110241148,0,11,10.92097065,8,36,0
3.120320496,1,11,11.06144656,10,36,0
3.066007175,-2,11,11.01927402,-2,36,0
3.066007175,-1,11,10.9559299,-4,36,0
3.061764197,1,11,10.90071557,-6,36,0
3.082596308,-3,11,11.12755139,-17,36,0
3.130750709,-2,11,11.18041144,0,36,0
3.177672104,0,11,11.05325291,7,36,0
3.213035948,1,11,11.01083103,8,36,0
3.157467339,5,11,11.11150755,12,36,0
3.238271144,6,13,11.13554669,3,36,0
3.415318433,1,14,11.08918392,-2,36,0
3.382306905,-8,14,11.03086579,-8,36,0
3.400529371,-4,14,11.13784539,-15,36,0
3.453925303,-1,14,11.31505192,-7,36,0
3.370459909,3,14,11.10259429,9,36,0
3.306297022,5,14,10.9767937,11,36,0
3.318794962,-1,14,11.08081224,9,36,0
3.296604314,1,14,11.15168149,4,36,0
3.346699867,2,14,11.10272039,-2,36,0
3.342394351,-7,14,11.01998185,-11,36,0
3.437673632,-4,14,11.12728179,-13,36,0
3.561797299,-1,15,11.26532734,-5,36,0
3.509985755,3,15,11.08406063,2,34,0
3.468486702,1,15,10.8861196,11,34,0
3.460866943,3,15,10.94548309,12,34,0
3.456067129,0,15,11.02225022,4,34,0
3.456067129,3,15,10.98036429,-2,34,0
3.376921675,-2,15,10.76715376,-7,33,0
3.293387314,-3,15,10.77961038,-10,33,0
3.3346664,-3,15,10.94049359,-9,33,0
3.3346664,1,15,10.88602774,1,33,0
3.299757567,3,15,10.70820246,12,33,0
3.311857485,3,15,10.77961038,12,33,0
3.36903547,2,15,10.8963113,4,33,0
3.420175434,1,15,10.92009157,0,33,0
3.387565498,-5,15,10.79073677,-7,33,0
3.371409201,-1,15,10.74057727,-9,33,0
3.493765877,-6,15,10.96979489,-14,33,0
3.521874501,1,15,10.99789071,0,33,0
3.553083168,2,15,10.8884526,9,33,0
3.521874501,4,15,10.88588076,12,33,0
3.672655715,7,15,11.01615178,9,33,0
3.752332608,-1,15,11.01615178,0,33,0
3.813712102,-1,15,10.95525445,-4,33,0
3.823297007,-3,15,10.90321054,-8,33,0
3.836665219,-5,15,11.08225609,-16,33,0
3.991240409,-6,17,11.11006751,-2,33,0
4.039801975,4,17,11.03086579,7,33,0
4.060788101,1,17,11.00772456,9,33,0
4.060788101,5,17,11.12661674,12,33,0
4.096876859,3,17,11.12661674,1,33,0
4.127953488,-1,17,11.09154633,-4,33,0
4.141304142,-6,17,11.0526196,-7,33,0
4.184781954,-2,17,11.20358871,-15,33,0
4.331327741,-4,17,11.23273787,-4,33,0
4.352654363,3,17,11.09407049,7,33,0
4.315970343,4,17,11.02114332,9,33,0
4.366966911,7,17,11.16601988,14,33,0
4.39089968,-2,17,11.23069009,1,33,0
4.286910309,0,17,11.16601988,-3,33,0
4.123105626,-1,16,11.05542401,-7,33,0
4.145551833,-6,16,11.15241678,-15,33,0
4.184925328,-2,16,11.30077873,-6,33,0
4.167733197,2,16,11.14165158,5,32,0
4.164804917,3,16,11.07133235,14,32,0
4.241179081,7,16,11.23743743,12,32,0
4.442701881,3,18,11.44230746,5,36,0
4.511718076,-3,18,11.44230746,-4,36,0
4.439864863,-7,18,11.33153123,-9,36,0
4.476605857,-4,18,11.40526194,-15,36,0
4.501955131,-2,18,11.68417734,-12,40,0
4.531489821,-1,18,11.77354662,2,40,0
4.519690255,5,18,11.6479011,12,40,0
4.510254982,3,18,11.69144987,15,40,0
4.515794504,1,18,11.69144987,1,40,0
4.545063256,2,18,11.69144987,4,40,0
4.521238768,-2,18,11.61152875,-8,40,0
4.514687143,-2,18,11.61290661,-9,40,0
4.522344525,-2,18,11.77346168,-11,40,0
4.485710646,1,18,11.74905954,1,40,0
4.465153973,0,18,11.58937444,11,40,0
4.48058032,4,18,11.66780185,13,40,0
4.561622518,4,18,11.77130409,5,40,0
4.521061822,-5,18,11.72840995,-3,40,0
4.450842617,-1,18,11.59532664,-6,40,0
4.449898875,-1,18,11.55847741,-8,40,0
4.453358283,-1,18,11.72177461,-12,40,0
4.388348209,-2,18,11.67109249,0,40,0
4.327632147,5,18,11.45818485,11,40,0
4.304230477,0,18,11.45231854,10,40,0
4.348608973,3,18,11.57101551,6,40,0
4.234194138,-2,18,11.5277925,-1,40,0
4.182104733,2,18,11.41733769,-4,40,0
4.113830332,-3,18,11.33490185,-7,40,0
4.165621202,-7,18,11.55570855,-17,40,0
4.178803657,2,18,11.6068945,0,40,0
4.014423994,2,18,11.42889321,9,40,0
3.966055975,2,18,11.35957746,9,40,0
3.93553046,-1,18,11.45965095,9,40,0
3.93553046,2,18,11.44027972,0,40,0
3.884378972,-1,18,11.32750635,-5,40,0
3.856215762,-2,18,11.25849013,-6,40,0
3.890706877,-3,18,11.45043231,-15,40,0
3.856215762,2,18,11.49826074,0,40,0
3.778888726,-4,17,11.31902823,6,40,0
3.7,6,17,11.23432241,11,40,0
3.772320241,6,17,11.33597812,9,40,0
3.694374101,-5,17,11.33597812,2,40,0
3.661748216,-1,17,11.23665431,-4,40,0
3.627671429,1,17,11.13186417,-8,40,0
3.609764535,0,17,11.2045705,-11,40,0
3.631032911,-5,17,11.35034801,-7,40,0
3.5665109,2,17,11.18622367,7,40,0
3.534062818,3,17,11.05891496,10,40,0
3.539717503,1,17,11.16243701,11,40,0
3.453751583,2,17,11.13856364,2,40,0
3.216271133,0,14,10.96614791,0,36,0
3.097159989,-1,14,10.7660392,-10,36,0
3.101999355,-4,14,10.78370994,-11,36,0
3.059673185,-1,14,10.88514584,-6,36,0
2.925747768,2,14,10.5592424,5,34,0
2.728809264,1,13,10.21755352,8,32,0
2.72477522,2,13,10.28007782,12,32,0
2.825314142,3,13,10.45783916,5,33,0
2.856571371,-2,13,10.56145823,-2,33,0
2.821630734,-4,13,10.44268165,-8,33,0
2.817374664,0,13,10.44147499,-10,33,0
2.92636293,-5,13,10.61698639,-10,33,0
2.947269923,2,13,10.58935314,0,33,0
2.981543225,0,13,10.41299189,10,33,0
2.974626027,3,13,10.4311265,10,33,0
2.994394764,4,13,10.4938077,7,33,0
2.954386569,2,12,10.44252843,0,33,0
2.947812748,-5,12,10.34438978,-7,33,0
2.947880595,-1,12,10.3189922,-8,33,0
3.084736618,-6,12,10.62818893,-16,34,0
3.170173497,1,12,10.68426881,2,34,0
3.170173497,2,12,10.54591864,9,34,0
3.170173497,5,12,10.55082935,11,34,0
3.170173497,0,12,10.63813893,8,34,0
3.108440123,0,12,10.5746111,-2,34,0
3.129281068,2,12,10.50020952,-2,34,0
3.055225033,-4,12,10.44124514,-7,34,0
3.098128467,-4,12,10.67790242,-17,34,0
3.013370206,4,12,10.62269269,2,34,0
2.984560269,-1,12,10.42928569,7,34,0
3.005395149,4,12,10.39086137,10,34,0
3.013569312,-1,12,10.52093152,9,34,0
3.013569312,-2,12,10.52093152,-1,34,0
3.148904571,7,13,10.50150465,-1,34,0
3.148078779,-7,13,10.47282197,-8,34,0
3.142546738,0,13,10.61123932,-14,34,0
3.087069808,2,13,10.58393122,-2,34,0
3.066985491,-1,13,10.41539246,7,34,0
2.944554296,-3,13,10.33365376,8,34,0
2.980201335,6,13,10.43885051,10,34,0
2.883678207,-3,13,10.45984704,1,34,0
2.902481697,2,13,10.4158533,-1,34,0
2.901310049,-2,13,10.34525978,-10,34,0
2.902481697,-1,13,10.44536261,-11,34,0
2.974289831,-4,13,10.72910061,-10,36,0
3.008055851,-1,13,10.69842979,4,36,0
2.994394764,4,13,10.61289781,13,36,0
2.994394764,2,13,10.68608441,12,36,0
3.083893643,5,13,10.70708177,3,36,0
3.108761811,-1,13,10.73172866,2,36,0
3.108761811,-1,13,10.60001887,-9,36,0
3.09896757,-5,13,10.60754448,-9,36,0
3.157467339,-3,13,10.75734168,-11,36,0
3.176476035,1,13,10.75734168,1,36,0
3.195058685,1,13,10.6910991,11,36,0
3.195058685,3,13,10.76418134,12,36,0
3.195058685,2,13,10.78517501,3,36,0
3.137451195,1,13,10.68202228,0,34,0
3.117691454,-1,13,10.53178048,-6,34,0
3.125123998,-1,13,10.503885,-9,34,0
3.131070105,-3,13,10.69422274,-12,34,0
3.041381265,0,13,10.69422274,1,34,0
3.00059994,2,13,10.53102084,10,34,0
2.958107503,-1,13,10.56501775,11,34,0
2.993593159,4,13,10.7412476,8,35,0
2.974894956,-1,13,10.7412476,-2,35,0
2.877498914,-2,13,10.61789056,-7,35,0
2.883678207,1,13,10.58680311,-8,35,0
3.028200786,-8,13,10.8149711,-14,35,0
2.954386569,2,13,10.72522261,1,35,0
2.92,0,13,10.5489336,7,35,0
2.875830315,5,13,10.51948668,12,35,0
2.875830315,1,13,10.66208235,9,35,0
2.875830315,0,13,10.66208235,-1,35,0
2.93428015,3,13,10.61510245,-5,35,0
2.897516178,-5,13,10.55651458,-6,35,0
2.897516178,0,13,10.71081696,-14,35,0
2.821630734,1,13,10.60754448,1,35,0
2.845628226,-3,13,10.45745667,6,35,0
2.845628226,1,13,10.41347204,8,35,0
2.845628226,4,13,10.53838697,10,35,0
2.975163861,4,13,10.56145823,1,35,0
3.030775478,-2,13,10.52473278,-4,35,0
2.903859501,-5,13,10.43649366,-7,35,0
2.927456234,-2,13,10.56978713,-14,35,0
3.118717685,-5,14,10.7364985,-6,35,0
3.119294792,6,14,10.61510245,10,35,0
3.125635935,3,14,10.57069534,9,35,0
3.111269837,0,14,10.68136695,10,35,0
3.074020169,-2,14,10.68136695,0,35,0
3.093283046,-2,14,10.58158778,-5,35,0
3.133304964,-2,14,10.46640339,-6,35,0
3.137132449,3,14,10.57498936,-11,35,0
3.153157148,-1,14,10.71679056,-5,35,0
3.153157148,-2,14,10.50449428,3,33,0
3.068810845,3,14,10.26350817,13,33,0
3.085449724,4,14,10.36881864,11,33,0
3.105865419,0,14,10.47618251,3,33,0
3.073044093,2,14,10.55099995,1,33,0
3.011710477,-3,14,10.39338251,-10,33,0
2.966749063,-2,14,10.39607618,-10,33,0
3.021853736,-4,14,10.56666456,-9,33,0
2.961418579,4,14,10.51406677,1,33,0
2.929914675,-1,14,10.32606411,14,33,0
2.912043956,2,14,10.44651138,11,33,0
3.014962686,5,14,10.55099995,2,33,0
3.060784213,-1,14,10.57355191,-1,33,0
3.028200786,-3,14,10.4885652,-6,33,0
3.007723392,-2,14,10.46443501,-9,33,0
3.09354166,-5,14,10.70297155,-14,33,0
3.122883283,2,14,10.67567328,2,33,0
3.122883283,2,14,10.50190459,10,33,0
3.130750709,3,14,10.51332488,10,33,0
3.153474275,1,14,10.59811304,6,33,0
3.179685519,2,14,10.52465676,0,33,0
3.158733924,-4,14,10.40384544,-6,33,0
3.157530681,-1,14,10.37460361,-7,33,0
3.268088126,-6,14,10.61789056,-15,33,0
3.308413517,-1,14,10.61789056,0,33,0
3.308413517,3,14,10.48093507,7,33,0
3.255764119,4,14,10.41969289,11,33,0
3.297332255,4,14,10.55886358,11,33,0
3.509985755,5,16,10.58347769,1,33,0
3.521874501,-6,16,10.52646189,-5,33,0
3.461849217,-2,16,10.48511326,-8,33,0
3.514598128,-5,16,10.67424939,-15,33,0
3.544009029,1,16,10.75538935,-2,33,0
3.551281459,5,16,10.66660208,9,33,0
3.537287096,-2,16,10.63202709,8,33,0
3.540847356,2,16,10.71776096,9,33,0
3.524542524,-3,16,10.71776096,2,33,0
3.400058823,3,16,10.63774412,-3,33,0
3.354101966,1,16,10.57234127,-6,33,0
3.354101966,-3,16,10.66365791,-13,33,0
3.449579685,-6,16,10.8295891,-8,33,0
3.304602851,5,16,10.60469707,9,33,0
3.300666599,1,16,10.54326325,9,33,0
3.3346664,4,16,10.65196695,11,33,0
3.392992779,1,16,10.77433989,5,34,0
3.432841389,-1,16,10.77433989,-5,34,0
3.423974299,-2,16,10.75732309,-7,34,0
3.365947118,-1,16,10.80705325,-11,34,0
3.418830209,-5,16,10.90447615,-8,34,0
3.40728631,3,16,10.82323427,2,34,0
3.353863444,0,16,10.65878042,12,34,0
3.352610923,3,16,10.75964683,12,34,0
3.369807116,2,16,10.82508199,3,34,0
3.409457435,1,16,10.8014999,-1,34,0
3.353565267,-5,16,10.60988219,-11,34,0
3.348074073,0,16,10.6170429,-7,34,0
3.469870315,-6,16,10.83588483,-11,34,0
3.447259781,3,16,10.83588483,2,34,0
3.463466472,1,16,10.69123005,10,34,0
3.458843737,3,16,10.77792188,14,34,0
3.476837644,2,16,10.82443532,4,34,0
3.423974299,1,16,10.82443532,0,34,0
3.36220166,-3,16,10.73081544,-6,34,0
3.374966667,2,16,10.68885401,-8,34,0
3.407345007,-6,16,10.8692042,-14,34,0
3.356247905,0,16,10.78880902,1,34,0
3.339221466,1,16,10.62692806,8,34,0
3.334006599,2,16,10.63014581,10,34,0
3.389159188,5,16,10.79831468,10,34,0
3.430685063,0,16,10.79831468,-3,34,0
3.370459909,-4,16,10.72800075,-4,34,0
3.369807116,-1,16,10.6995327,-7,34,0
3.369807116,0,16,10.88670749,-15,34,0
3.251092124,-1,16,10.83086331,0,34,0
3.071742177,1,15,10.62052729,8,34,0
3.009584689,-1,15,10.5358246,7,34,0
3.013569312,3,15,10.63496121,10,34,0
2.977314226,-1,15,10.57402478,-1,34,0
2.736494107,-2,11,10.4311265,-4,34,0
2.712931993,1,11,10.36264445,-7,34,0
2.712120941,0,11,10.52883659,-12,34,0
2.747799119,-5,11,10.58582071,-3,34,0
2.729395537,8,11,10.37360111,10,34,0
2.721837615,-2,11,10.32877534,9,34,0
2.829063449,5,12,10.50226642,11,34,0
2.842534081,-3,12,10.5637304,-1,34,0
2.970252515,4,13,10.5637304,-1,34,0
2.966749063,-7,13,10.50312334,-9,34,0
2.972473717,-2,13,10.60143387,-13,34,0
3.207553585,-6,15,10.84931334,-9,35,0
3.170110408,3,15,10.70334527,6,35,0
3.163858404,5,15,10.62112988,13,35,0
3.163795189,1,15,10.72276084,11,35,0
3.163795189,3,15,10.76483163,2,35,0
3.138470965,0,15,10.62638226,-3,34,0
3.0994193,-3,15,10.52442873,-8,34,0
3.152395914,-5,15,10.61133356,-12,34,0
3.184713488,1,15,10.74988372,-4,34,0
3.126915413,3,15,10.67409949,2,34,0
3.126915413,-1,15,10.51020457,13,34,0
3.129792325,3,15,10.61336893,10,34,0
3.12256305,-1,15,10.61336893,0,34,0
3.102321711,2,15,10.56638065,1,34,0
3.05450487,0,15,10.42834599,-8,34,0
3.059673185,-4,15,10.47604887,-11,34,0
3.18345724,-5,15,10.69571877,-9,34,0
3.093800252,3,15,10.63954886,2,34,0
3.061045573,4,15,10.45477881,12,34,0
3.112298186,4,15,10.54364263,13,34,0
3.176413071,0,15,10.68383826,5,35,0
3.195058685,-1,15,10.65975609,-3,35,0
3.163858404,-2,15,10.52853266,-6,35,0
3.170110408,0,15,10.47557158,-8,35,0
3.211790778,-6,15,10.66575829,-13,35,0
3.301151314,-2,15,10.66575829,0,35,0
3.272674747,5,15,10.52805775,9,35,0
3.261226763,0,15,10.52235715,10,35,0
3.281219286,4,15,10.65112201,8,35,0
3.216271133,-3,15,10.55696926,-2,35,0
3.156200247,2,15,10.47070198,-4,35,0
3.170425839,-4,15,10.41400979,-7,35,0
3.20224921,-1,15,10.62873464,-15,35,0
3.20224921,3,15,10.62873464,1,35,0
3.242283146,4,15,10.46678556,9,35,0
3.264597984,-1,15,10.44421371,9,35,0
3.353863444,3,15,10.61924668,10,35,0
3.353863444,-4,15,10.66225117,-1,35,0
3.389631248,2,15,10.66225117,-3,35,0
3.383252873,-3,15,10.64,-7,35,0
3.419064199,-4,15,10.85828716,-18,35,0
3.537739391,-3,15,11.00183621,-3,35,0
3.570770225,0,15,10.87669067,7,35,0
3.558707631,8,15,10.84046124,12,35,0
3.594440151,2,15,10.9783241,12,35,0
3.628167582,3,15,11.05940324,4,36,0
3.64505144,-3,15,11.00016364,-7,36,0
3.522782991,-4,15,10.88485186,-7,36,0
3.537287096,-2,15,10.95693388,-12,36,0
3.552801711,-1,15,11.19373039,-10,36,0
3.408460063,-1,13,11.02043556,6,36,0
3.328663395,3,13,10.86543142,11,36,0
3.347894861,4,13,10.96760685,13,36,0
3.366006536,0,13,10.96760685,0,36,0
3.335925659,-1,13,10.94575717,1,36,0
3.335925659,2,13,10.89065655,-6,36,0
3.335925659,-3,13,10.91466903,-11,36,0
3.335925659,-5,13,11.03086579,-10,36,0
3.305510551,6,13,10.92382717,6,36,0
3.321987357,1,13,10.78176238,10,36,0
3.31927703,-1,13,10.90007339,11,36,0
3.31927703,0,13,10.94109684,1,36,0
3.351477286,2,13,10.98182134,0,36,0
3.337304301,-4,13,10.8830878,-8,36,0
3.321987357,0,13,10.89249283,-9,36,0
3.353147775,-3,13,11.05983725,-11,36,0
3.241049213,1,13,11.00392657,1,36,0
3.20024999,2,13,10.82914586,10,36,0
3.205058502,2,13,10.8585266,11,36,0
3.147125673,-1,13,10.89955962,6,36,0
3.219689426,-7,13,10.74809751,-4,36,0
3.196498084,4,13,10.61547926,-5,36,0
3.192553837,1,13,10.58604742,-7,36,0
3.237344591,-3,13,10.82951522,-13,36,0
3.206493412,7,13,10.80446204,3,36,0
3.084736618,-4,13,10.65324364,7,36,0
3.099741925,4,13,10.63954886,10,36,0
3.156517068,2,13,10.79090358,10,36,0
3.138216054,-4,13,10.76876966,-2,36,0
3.155946768,2,13,10.7335735,-3,36,0
3.150174598,-2,13,10.69596185,-7,36,0
3.150174598,-3,13,10.88487023,-16,36,0
3.175909319,-2,13,10.88487023,-1,36,0
3.175909319,4,13,10.74623655,8,36,0
3.144773442,2,13,10.722108,9,36,0
3.144773442,1,13,10.8554134,11,36,0
3.182514729,4,13,10.90827209,3,36,0
3.344308598,1,14,10.86646217,-5,36,0
3.317589486,-9,14,10.78927245,-8,36,0
3.377632307,-3,14,10.94533691,-16,36,0
3.464101615,-2,14,11.00409015,-4,36,0
3.341915618,7,14,10.76150547,9,36,0
3.208987379,0,14,10.64,8,36,0
3.208987379,1,14,10.74065175,11,36,0
3.208987379,2,14,10.74065175,2,36,0
3.172443853,2,14,10.59056184,-2,35,0
3.142546738,-4,14,10.50744498,-9,35,0
3.162846819,-4,14,10.62141234,-13,35,0
3.238765197,-3,14,10.75724872,-4,35,0
3.263433774,1,14,10.57612405,2,33,0
3.2,5,14,10.40786241,13,33,0
3.192240592,0,14,10.48734475,10,33,0
3.192240592,2,14,10.53043209,3,33,0
3.180503105,-1,14,10.53043209,-2,33,0
3.174901573,-1,14,10.40816987,-9,33,0
3.144837039,-2,14,10.44469243,-10,33,0
3.181760519,-2,14,10.69670977,-9,33,0
3.181760519,-1,14,10.62065911,5,33,0
3.174208563,4,14,10.54324428,11,33,0
3.153474275,1,14,10.63182016,11,33,0
3.212475681,4,14,10.65457648,3,33,0
3.205557674,-4,14,10.63182016,-1,33,0
3.172443853,1,14,10.49190164,-8,33,0
3.189043744,-4,14,10.48520863,-8,33,0
3.22217318,-1,14,10.68082394,-11,33,0
3.22217318,0,14,10.65399456,1,33,0
3.239073942,0,14,10.48520863,10,33,0
3.243454948,2,14,10.51391459,11,33,0
3.23332646,1,14,10.60115088,5,33,0
3.241542843,2,14,10.57816619,0,33,0
3.128002558,0,14,10.54900943,-5,33,0
3.111269837,-1,14,10.53565375,-7,33,0
3.105414626,-1,14,10.71352416,-14,33,0
3.105414626,-4,14,10.63195184,1,33,0
3.101225564,2,14,10.50464659,7,33,0
3.104126286,4,14,10.48024809,10,33,0
3.150174598,3,14,10.64159762,10,33,0
3.263372489,3,14,10.66770828,1,33,0
3.263372489,-7,14,10.59667872,-7,33,0
3.250907566,1,14,10.52974834,-6,33,0
3.250599945,-2,14,10.69175383,-15,33,0
3.357141641,-6,14,10.77866411,-4,33,0
3.357141641,2,14,10.64332655,8,33,0
3.395055228,8,14,10.5970562,11,33,0
3.511182137,3,14,10.79275683,13,33,0
3.738662863,3,16,10.86970101,1,33,0
3.644173432,-7,16,10.73171002,-6,33,0
3.494223805,-1,16,10.63345663,-7,33,0
3.57211422,-7,16,10.84066419,-18,33,0
3.550154926,2,16,10.98225842,-3,34,0
3.48832338,-1,16,10.8728837,5,34,0
3.488036697,4,16,10.81297369,13,34,0
3.488036697,1,16,10.93963436,12,34,0
3.499771421,2,16,10.95992701,0,34,0
3.470389027,-1,16,10.937806,0,34,0
3.377869151,-2,16,10.83512806,-10,34,0
3.373781261,-1,16,10.94424049,-13,34,0
3.510042735,-6,17,11.0381339,-4,34,0
3.446737588,5,17,10.90777704,6,34,0
3.395585369,3,17,10.74906508,9,34,0
3.433715189,3,17,10.87426319,12,34,0
3.470389027,0,17,11.03972826,5,35,0
3.573513677,3,17,11.06301948,-3,35,0
3.567856499,-6,17,10.98224021,-9,35,0
3.573009936,-2,17,11.00707045,-10,35,0
3.621546631,-3,17,11.21427662,-12,35,0
3.701026885,-2,17,11.21427662,0,35,0
3.680271729,3,17,11.09551261,13,35,0
3.680271729,3,17,11.14488223,12,35,0
3.736790066,5,17,11.20357086,5,35,0
3.736790066,0,17,11.20357086,0,35,0
3.769562309,-1,17,11.12339876,-6,35,0
3.763827839,-4,17,11.11395519,-8,35,0
3.763827839,-2,17,11.28007092,-13,35,0
3.732291521,2,17,11.22953249,1,35,0
3.699513482,0,17,11.07084459,8,35,0
3.664751015,1,17,11.070682,10,35,0
3.671729838,2,17,11.17146365,8,35,0
3.743581173,3,17,11.19251536,0,35,0
3.741657387,-6,17,11.10295456,-7,35,0
3.739304748,0,17,11.07097105,-8,35,0
3.758989226,-2,17,11.30776724,-14,35,0
3.841874542,-3,17,11.36105629,0,35,0
3.899538434,-1,17,11.282482,7,35,0
3.899538434,4,17,11.24855546,10,35,0
3.90942451,5,17,11.37759201,12,35,0
3.90942451,2,17,11.33341961,-1,35,0
3.763827839,-4,17,11.18220014,-5,35,0
3.763455859,-1,17,11.12836017,-6,35,0
3.786502344,-3,17,11.29900881,-15,35,0
3.787400164,4,17,11.29900881,1,35,0
3.678260458,0,17,11.0860092,6,35,0
3.6230374,-1,17,11.01782193,10,35,0
3.644667337,5,17,11.18257573,11,35,0
3.682390528,3,17,11.20935324,2,35,0
3.589763223,0,15,11.11244348,-4,35,0
3.578882507,-6,15,11.04072461,-8,35,0
3.606438687,-5,15,11.14622806,-15,35,0
3.719623637,-5,16,11.26758182,-8,36,0
3.740374313,4,16,11.12907903,6,36,0
3.693724408,3,16,10.97314905,12,36,0
3.694103409,2,16,11.05667219,11,36,0
3.710741166,2,16,11.15363618,6,36,0
3.748279605,2,16,11.19801768,-2,36,0
3.758776397,-2,16,11.0909152,-10,36,0
3.774917218,-5,16,11.18443561,-14,36,0
3.878143886,-4,16,11.33534296,-7,36,0
3.785287307,2,16,11.33534296,2,36,0
3.785287307,2,16,11.26994232,12,36,0
3.790725524,4,16,11.33666618,12,36,0
3.790725524,2,16,11.29913271,1,36,0
3.763827839,-2,16,11.15268578,1,35,0
3.664751015,1,16,10.98633697,-8,35,0
3.663932314,-3,16,10.9945441,-9,35,0
3.689173349,-3,16,11.1696016,-9,35,0
3.689173349,-1,16,11.11352329,0,35,0
3.578603079,5,16,10.86432695,12,35,0
3.54541958,-1,16,10.92280184,12,35,0
3.627064929,6,16,11.0164241,4,35,0
3.589373204,-3,16,10.97371405,-2,35,0
3.539717503,-1,16,10.84405828,-6,35,0
3.51049854,-3,16,10.80673864,-8,35,0
3.52641461,-1,16,10.97978142,-11,35,0
3.515679166,1,16,10.97978142,0,35,0
3.531345353,-1,16,10.85226244,9,35,0
3.546491224,0,16,10.86462148,11,35,0
3.546491224,3,16,10.99519895,7,35,0
3.616019911,5,16,10.99519895,0,35,0
3.564323218,-2,16,10.90029357,-5,35,0
3.583294573,-1,16,10.86822893,-7,35,0
3.59866642,-5,16,11.04,-15,35,0
3.583796869,3,16,10.96228078,1,35,0
3.499771421,0,16,10.74335143,9,35,0
3.388450974,2,16,10.69661629,10,35,0
3.366244198,-2,16,10.84280407,7,35,0
3.352849534,-1,16,10.80044444,-2,35,0
3.302181097,2,16,10.71651063,-4,35,0
3.303089463,-2,16,10.67527986,-7,35,0
3.365471735,-4,16,10.91496221,-16,35,0
3.3346664,3,16,10.94137103,1,35,0
3.371883747,-2,16,10.86093919,6,35,0
3.371883747,4,16,10.81482316,9,35,0
3.405877273,3,16,10.98136604,14,35,0
3.354042337,-5,16,10.93515432,-2,35,0
3.218695388,5,16,10.77717959,-3,35,0
3.04,-2,14,10.66763329,-4,35,0
3.063919059,-5,14,10.80601684,-18,35,0
3.195309062,-4,14,10.95644103,-4,35,0
3.013303835,4,13,10.72111934,7,33,0
2.954657341,4,13,10.56590744,11,33,0
3.020529755,4,13,10.63872173,8,33,0
3.038157336,-7,13,10.63872173,1,33,0
3.038157336,5,13,10.49312156,0,31,0
2.966749063,-2,13,10.30852075,-8,31,0
2.975634386,-4,13,10.36511457,-11,31,0
3.017548674,-1,13,10.50951949,-7,31,0
2.923627883,1,13,10.39824985,3,31,0
2.862236887,3,13,10.1908979,11,31,0
2.868867372,3,13,10.30075725,13,31,0
2.905167809,1,13,10.38460399,2,31,0
2.905167809,0,13,10.44951674,0,31,0
2.919520509,-1,13,10.35955598,-8,31,0
2.896618718,-3,13,10.36725615,-9,31,0
2.992056149,-5,13,10.49382676,-9,31,0
2.961418579,4,13,10.41698613,1,31,0
2.903515111,0,13,10.20658611,9,31,0
2.902481697,1,13,10.25454046,11,31,0
2.946794869,4,13,10.33674997,5,31,0
2.912043956,1,13,10.33674997,0,31,0
2.897516178,-3,13,10.27013145,-6,31,0
2.906888371,-4,13,10.25389682,-9,31,0
2.919177966,0,13,10.46518036,-13,31,0
2.919177966,0,13,10.46518036,1,31,0
2.915064322,3,13,10.28980078,10,31,0
2.896618718,-1,13,10.29386225,10,31,0
2.981543225,6,13,10.46709129,9,32,0
2.981543225,-5,13,10.44430946,-3,32,0
2.883678207,-2,13,10.32310031,-6,32,0
2.842815506,0,13,10.26802805,-7,32,0
2.833301961,-1,13,10.48696334,-14,32,0
2.818226393,3,13,10.48696334,1,32,0
2.833301961,-3,13,10.35922777,8,32,0
2.858601056,5,13,10.3504396,9,32,0
2.881388554,1,13,10.45104779,9,32,0
3.18804015,6,17,10.50312334,3,32,0
3.405877273,-1,17,10.52425769,-3,32,0
3.400941046,-9,17,10.4889275,-9,32,0
3.48832338,-5,17,10.67887635,-17,32,0
3.435636768,7,17,10.62231613,0,32,0
3.447665877,-4,17,10.46764539,6,32,0
3.442382896,6,17,10.39078438,11,32,0
3.443486605,-4,17,10.47589614,7,32,0
3.564042648,8,17,10.53043209,6,33,0
3.583350388,-4,17,10.50988106,-5,33,0
3.555277767,-3,17,10.44453924,-9,33,0
3.57233817,-3,17,10.5475874,-13,33,0
3.595830919,-2,17,10.69512038,-7,34,0
3.520284079,-1,15,10.60695998,4,34,0
3.488782022,4,15,10.50858696,13,34,0
3.488782022,2,15,10.61350084,12,34,0
3.451434484,2,15,10.64894361,0,34,0
3.42928564,-2,15,10.61726895,-3,34,0
3.455083212,-4,15,10.53301476,-9,34,0
3.462715697,2,15,10.61063617,-8,34,0
3.424908758,1,15,10.80548009,-8,34,0
3.367847978,-1,15,10.65990619,7,34,0
3.324815784,2,15,10.49497022,10,34,0
3.322709738,0,15,10.59433811,11,34,0
3.312763197,1,15,10.61487635,1,34,0
3.296604314,1,15,10.57183049,-1,34,0
3.265333061,-2,15,10.42450958,-9,34,0
3.249861536,0,15,10.44032567,-8,34,0
3.290045592,-4,15,10.66817698,-10,34,0
3.290045592,-2,15,10.74869294,0,34,0
3.281767816,6,15,10.63014581,12,34,0
3.277560068,1,15,10.69497078,13,34,0
3.280243893,0,15,10.7900139,4,34,0
3.280243893,2,15,10.7900139,0,34,0
3.2299226,-2,15,10.66958293,-7,34,0
3.226453161,-2,15,10.62918623,-8,34,0
3.271757937,-4,15,10.83246971,-13,34,0
3.471080523,-4,18,10.89043617,-2,34,0
3.453056617,8,18,10.73545528,12,34,0
3.458323293,2,18,10.754069,11,34,0
3.489641815,2,18,10.89919263,8,34,0
3.489641815,2,18,10.87301246,0,34,0
3.494281042,-4,18,10.80066665,-6,34,0
3.494281042,-3,18,10.76839821,-8,34,0
3.506793407,-1,18,10.94584853,-14,34,0
3.577093792,-3,18,10.97371405,-2,34,0
3.612256912,2,18,10.8411254,9,34,0
3.59494089,3,18,10.81635798,10,34,0
3.59494089,3,18,10.98407939,11,34,0
3.578603079,0,18,10.98407939,-2,34,0
3.40728631,3,17,10.87198234,-2,34,0
3.183959799,-5,16,10.74893483,-7,34,0
3.189043744,-2,16,10.87021619,-15,34,0
3.116151473,-1,16,10.82323427,0,34,0
3.112876483,1,16,10.67677854,6,34,0
3.101225564,0,16,10.61743849,7,34,0
3.101225564,5,16,10.74065175,11,34,0
3.200999844,2,16,10.88117641,4,34,0
3.014962686,-5,14,10.75964683,-5,34,0
2.984560269,-3,14,10.65390069,-9,34,0
3.014962686,-1,14,10.78398813,-14,34,0
3.032094985,0,14,10.93625164,-5,34,0
2.990919591,1,14,10.75176265,6,33,0
2.902137144,3,14,10.56789478,11,33,0
2.943535289,3,14,10.71837674,13,33,0
3.013901126,1,14,10.83926197,3,33,0
3.034205003,-1,14,10.85948433,-4,33,0
3.052146785,-6,14,10.81325113,-9,33,0
3.033150178,0,14,10.87612063,-11,33,0
3.089401236,-2,14,11.03876805,-8,33,0
3.106444913,2,14,10.92805564,3,33,0
3.106444913,1,14,10.83512806,11,33,0
3.106444913,2,14,10.90154118,11,33,0
3.206243908,5,14,10.94329018,4,33,0
3.232645975,-9,14,10.88881995,-4,33,0
3.209735192,3,14,10.78867925,-7,33,0
3.212475681,-1,14,10.82273533,-8,33,0
3.224965116,-1,14,10.97161793,-8,33,0
3.198061913,1,14,10.86832094,2,33,0
3.120512778,3,14,10.63202709,9,33,0
3.120512778,-1,14,10.65249267,10,33,0
3.120512778,1,14,10.72986486,6,33,0
3.116472365,-3,14,10.68758158,-2,33,0
3.072458299,2,14,10.56077649,-6,33,0
3.066007175,-2,14,10.53681166,-7,33,0
3.120320496,-3,14,10.72240645,-12,33,0
3.224903099,-3,14,10.72240645,-1,33,0
3.030775478,5,13,10.46825678,10,33,0
3.030775478,2,13,10.45225335,9,33,0
3.068289426,4,13,10.64901873,12,33,0
3.046374895,-1,13,10.62497059,-3,33,0
3.010913483,2,13,10.52235715,-4,33,0
2.998933144,-5,13,10.47137049,-7,33,0
2.998933144,-1,13,10.6658333,-16,33,0
3.245982132,-8,15,10.75362265,-3,33,0
3.21844683,5,15,10.58685978,8,33,0
3.193493385,5,15,10.53795046,11,33,0
3.300666599,5,15,10.70222407,12,33,0
3.286396203,-4,15,10.70222407,0,33,0
3.27194132,0,15,10.63202709,-6,33,0
3.16227766,-2,15,10.54923694,-6,33,0
3.162024668,-1,15,10.66275762,-13,33,0
3.16227766,2,15,10.71193727,-3,33,0
3.19974999,-5,15,10.67025773,4,33,0
3.244996148,0,15,10.63398326,10,33,0
3.292415527,8,15,10.73916198,11,33,0
3.271024304,-1,15,10.73916198,1,33,0
3.186471403,0,15,10.59766012,-2,33,0
3.234130486,1,15,10.50198077,-6,33,0
3.22465502,-3,15,10.54696165,-11,33,0
3.208800399,-3,15,10.6235399,-8,33,0
3.208800399,-1,15,10.40838124,7,33,0
3.197749208,4,15,10.28739034,7,33,0
3.206306286,1,15,10.39440234,12,33,0
3.185215848,1,15,10.37142227,1,33,0
3.111012697,-2,15,10.20801646,-3,33,0
3.072458299,1,15,10.08079362,-6,33,0
3.071416611,0,15,10.11021266,-9,33,0
3.071416611,-4,15,10.32984027,-11,33,0
3.030775478,0,15,10.24579914,4,33,0
3.017880051,3,15,10.07906742,12,33,0
3.087069808,4,15,10.23179359,14,33,0
3.108761811,-2,15,10.39401751,3,33,0
3.108761811,3,15,10.44530517,-1,33,0
3.138470965,-1,15,10.43026366,-7,33,0
3.138470965,-5,15,10.43486464,-10,33,0
3.261901286,-6,15,10.65224859,-14,33,0
3.452767006,-2,15,10.77411713,-2,34,0
3.478850385,5,15,10.66958293,12,34,0
3.473845132,2,15,10.6976633,13,34,0
3.481379037,3,15,10.80192575,6,34,0
3.481379037,0,15,10.82554387,1,34,0
3.498799794,1,15,10.7640327,-7,34,0
3.497484811,-3,15,10.74645988,-7,34,0
3.544009029,-4,15,10.9333252,-14,34,0
3.523010077,1,15,10.9333252,0,34,0
3.406816696,7,15,10.73165411,10,34,0
3.407110212,-1,15,10.7392551,11,34,0
3.490615991,3,15,10.94073124,9,34,0
3.463466472,-4,15,10.8451095,-4,34,0
3.447665877,-2,15,10.73312629,-6,34,0
3.389631248,1,15,10.66937674,-6,34,0
3.406816696,-3,15,10.86139954,-14,34,0
3.406816696,1,15,10.86139954,0,34,0
3.129792325,1,14,10.61741965,8,34,0
3.059673185,1,14,10.53149562,8,34,0
3.093800252,3,14,10.66950795,11,34,0
3.008321791,-2,14,10.64595698,0,34,0
3.020198669,1,14,10.54582382,-4,34,0
3.038157336,-5,14,10.49618978,-8,34,0
3.079545421,-1,14,10.66770828,-14,34,0
3.170173497,-2,14,10.82781603,-4,34,0
3.170110408,5,14,10.71800355,8,34,0
3.166133288,5,14,10.61676033,11,34,0
3.128514024,-1,14,10.73500815,10,34,0
3.111269837,-1,14,10.77636302,1,34,0
3.128514024,1,14,10.73873363,-3,34,0
3.128514024,-1,14,10.66403301,-7,34,0
3.105092591,-4,14,10.8,-15,34,0
3.148078779,-2,14,10.96642148,-3,34,0
3.148078779,1,14,10.93948811,1,34,0
3.128002558,0,14,10.89331905,10,34,0
3.128961489,2,14,10.9584853,13,34,0
3.140764238,3,14,11.07566702,7,34,0
3.248445782,4,15,11.12014388,-2,34,0
3.263678906,-4,15,11.09370993,-7,34,0
3.260736113,-3,15,11.10720487,-11,34,0
3.352610923,-5,15,11.37156102,-14,34,0
3.395055228,1,15,11.34202804,2,34,0
3.395055228,2,15,11.1932837,13,34,0
3.411744422,5,15,11.28723172,14,34,0
3.371409201,0,15,11.28723172,2,34,0
3.359821424,-1,15,11.19242601,-1,34,0
3.275423637,0,15,11.03124653,-6,34,0
3.210981158,-2,15,10.9832782,-8,34,0
3.244996148,-3,15,11.15973118,-12,34,0
3.178741889,-1,15,11.10569223,0,34,0
2.947880595,4,12,10.81963031,10,34,0
2.924995726,3,12,10.84759881,13,34,0
2.978657416,2,12,10.99818167,6,34,0
2.978657416,-3,12,10.97686658,-3,34,0
2.978657416,0,12,10.85128564,-5,34,0
2.970589167,-3,12,10.81524849,-8,34,0
3.04032893,-3,12,11.05867985,-15,34,0
2.969444392,5,12,11.03392949,3,34,0
2.947880595,-3,12,10.87338034,8,34,0
2.928754001,5,12,10.87420802,10,34,0
2.973482806,2,12,11.00079997,9,34,0
2.877498914,-5,12,10.92499886,-1,34,0
2.910395162,4,12,10.87043697,-4,34,0
2.915064322,-2,12,10.8485022,-6,34,0
2.959729717,-5,12,11.03682925,-17,34,0
2.959729717,1,12,11.06345335,-1,34,0
2.959729717,1,12,10.94063984,7,34,0
2.958986313,2,12,10.90548486,10,34,0
2.977314226,2,12,11.02259498,10,34,0
2.958107503,0,12,11.02259498,1,34,0
2.952219504,-2,12,10.94714575,-4,34,0
2.939387691,1,12,10.88713002,-6,34,0
2.960337819,-5,12,11.02595121,-15,34,0
3.157467339,-5,15,11.20044642,-7,35,0
3.125699922,4,15,11.09178074,6,35,0
3.163289427,1,15,11.01564342,12,35,0
3.104126286,5,15,11.09639581,11,35,0
3.130495168,3,15,11.19301568,6,35,0
3.244934514,2,15,11.21605991,-2,35,0
3.206805264,-6,15,11.14129256,-11,35,0
3.191300675,-2,15,11.23031611,-13,35,0
3.220248438,-2,15,11.30311462,-5,35,0
3.202748819,1,15,11.27716276,1,35,0
3.202748819,0,15,11.09954954,12,35,0
3.186785214,3,15,11.14560003,11,35,0
3.194307437,1,15,11.19828558,3,35,0
3.238579936,3,15,11.10272039,0,35,0
3.109726676,-3,15,10.95666008,-7,35,0
3.088300504,-1,15,10.94219356,-10,35,0
3.176727876,-6,15,11.16152319,-11,35,0
3.212475681,-1,15,11.07241618,1,35,0
3.189294593,3,15,10.84297007,12,35,0
3.182766093,5,15,10.89992661,12,35,0
3.202748819,2,15,10.99070516,6,35,0
3.202748819,-1,15,10.99070516,-2,35,0
3.193994364,-3,15,10.89816498,-7,35,0
3.186283101,1,15,10.88014706,-9,35,0
3.304602851,-7,15,11.11388321,-13,35,0
3.288525505,4,15,11.11388321,2,35,0
3.257299495,5,15,10.9481688,10,35,0
3.265639294,-1,15,10.97125335,11,35,0
3.284874427,2,15,11.07097105,7,35,0
3.218943926,-3,15,10.98041894,-3,35,0
3.232645975,2,15,10.8975043,-4,35,0
3.223724554,-3,15,10.86093919,-9,35,0
3.274141109,-4,15,11.09459328,-14,35,0
3.30266559,-1,15,11.06677912,1,35,0
3.310589071,7,15,10.93588588,10,35,0
3.297332255,-1,15,10.9248524,9,35,0
3.316865991,3,15,11.05095471,9,35,0
3.271452277,-1,15,10.98500797,-2,35,0
3.313246142,1,15,10.90695191,-2,35,0
3.286335345,-6,15,10.83667846,-10,35,0
3.469870315,-6,15,11.118651,-17,35,0
3.515451607,3,15,11.26261071,-1,35,0
3.529362549,2,15,11.13811474,10,35,0
3.526811591,3,15,11.08397041,9,35,0
3.569257626,4,15,11.21063781,12,35,0
3.613364084,1,15,11.23282689,1,35,0
3.65650106,0,15,11.19015639,-2,35,0
3.664096069,-3,15,11.13164858,-7,35,0
3.657376109,-3,15,11.20822912,-14,35,0
3.643295212,-1,15,11.25324842,-4,35,0
3.46,1,15,11.02361102,4,35,0
3.407345007,1,15,10.871688,11,35,0
3.41268223,4,15,10.97713988,10,35,0
3.46554469,1,15,11.03791647,2,35,0
3.46554469,0,15,10.88220566,-4,34,0
3.346640106,-3,13,10.7041861,-8,34,0
3.351178897,-3,13,10.80416586,-12,34,0
3.429518917,-4,13,10.97298501,-6,34,0
3.451434484,1,13,10.94731017,3,34,0
3.441162594,3,13,10.77471113,13,34,0
3.487635302,6,13,10.92704901,14,34,0
3.522726217,-1,13,11.00598019,0,34,0
3.534119409,-1,13,11.02825462,0,34,0
3.482298092,-1,13,10.92199615,-8,34,0
3.476147293,-1,13,10.92199615,-10,34,0
3.556683849,-6,13,11.12733571,-11,34,0
3.50776282,2,13,11.0743668,2,34,0
3.395055228,2,13,10.87656196,12,34,0
3.377336228,4,13,10.95729894,12,34,0
3.405877273,1,13,11.05913197,4,34,0
3.388746081,-1,13,11.00954132,-1,33,0
3.3717058,-2,13,10.90264188,-6,33,0
3.3717058,-1,13,10.87933822,-10,33,0
3.407110212,-3,13,11.0734999,-12,33,0
3.318071729,0,13,11.01998185,1,33,0
3.336165464,0,13,10.87558734,8,33,0
3.317890896,4,13,10.90447615,13,33,0
3.348133809,3,13,10.98915829,5,33,0
3.371883747,1,13,10.96505358,1,33,0
3.457687088,1,14,10.94634185,-3,33,0
3.441453181,-5,14,10.90438444,-9,33,0
3.47701021,-4,14,11.13258281,-17,33,0
3.505709629,-2,14,11.07906133,2,33,0
3.539717503,-1,14,10.91963369,7,33,0
3.533893037,7,14,10.90924379,11,33,0
3.590041782,4,14,11.06723091,10,33,0
3.639175731,1,14,11.09082504,0,33,0
3.811823711,3,17,11.07265099,-4,33,0
3.782908934,-8,17,11.01715027,-6,33,0
3.799421009,-4,17,11.17289578,-17,33,0
3.596053392,3,15,11.03211675,0,33,0
3.5665109,-4,15,10.77012535,4,31,0
3.534741858,3,15,10.68660844,10,31,0
3.54541958,4,15,10.78517501,10,31,0
3.53066566,0,15,10.80683117,2,31,0
3.494910585,0,15,10.74720429,-3,31,0
3.452767006,-4,15,10.64736587,-9,31,0
3.573009936,-5,15,10.82774215,-15,31,0
3.810511777,-3,18,11.06795374,-5,33,0
3.845828909,5,18,11.06795374,5,33,0
3.841301863,4,18,10.97504442,14,33,0
3.920459157,6,18,11.09803586,12,33,0
3.940761348,-1,18,11.18792206,3,34,0
3.940761348,0,18,11.2624864,1,35,0
3.905073623,-2,18,11.22539977,-10,35,0
3.899538434,-3,18,11.26213124,-12,35,0
3.998049524,-6,18,11.33038393,-8,35,0
3.939543121,4,18,11.24613711,0,35,0
3.904663878,0,18,11.06887528,11,35,0
3.91453701,0,18,11.10236011,10,35,0
3.866574712,4,18,11.06171777,4,35,0
3.838958192,0,18,11.02078037,0,35,0
3.827531842,0,18,10.89814663,-6,35,0
3.827531842,0,18,10.89699041,-9,35,0
3.853777368,-5,18,11.05687117,-10,35,0
3.829151342,-1,18,11.00181803,0,35,0
3.802315084,5,18,10.81879845,12,35,0
3.815756806,2,18,10.91283648,13,35,0
3.815756806,0,18,10.99507162,3,35,0
3.78211581,-2,18,10.95045205,-2,35,0
3.770623291,1,18,10.84783849,-5,35,0
3.770623291,-1,18,10.81510055,-9,35,0
3.774917218,-2,18,10.99325248,-12,35,0
3.750253325,0,18,10.94131619,1,35,0
3.735023427,-1,18,10.77805177,8,35,0
3.709447398,1,18,10.75659798,10,35,0
3.764252914,6,18,10.88301429,9,35,0
3.842967603,2,18,10.90447615,-1,35,0
3.806573262,-4,18,10.8292382,-4,35,0
3.731434041,-1,18,10.7483208,-8,35,0
3.745717555,-4,18,10.96642148,-16,35,0
3.766218262,-2,18,10.8853112,2,35,0
3.769137832,10,18,10.70371898,10,35,0
3.65535224,-4,18,10.65984991,7,35,0
3.659562815,0,18,10.81186385,10,35,0
3.61353013,0,18,10.78858656,-1,35,0
3.538361203,0,18,10.67520492,-5,35,0
3.345982666,-4,16,10.59413045,-7,35,0
3.428177358,-3,16,10.83381743,-17,35,0
3.547900788,-2,16,10.94533691,-1,35,0
3.621270495,2,16,10.88117641,7,35,0
3.574129265,5,16,10.80164802,10,35,0
3.591991091,3,16,10.92336944,12,35,0
3.610041551,1,16,10.96496238,1,35,0
3.62789195,0,16,10.90520976,-3,35,0
3.60865626,-3,16,10.8242136,-8,35,0
3.604497191,-1,16,10.94109684,-13,35,0
3.523861518,-3,16,11.02658605,-6,35,0
3.387565498,-3,14,10.82554387,5,33,0
3.335625878,5,14,10.63435941,11,33,0
3.354101966,4,14,10.71641731,11,33,0
3.299757567,1,14,10.76208158,4,33,0
3.40728631,4,15,10.7364985,0,33,0
3.353863444,-6,15,10.53231219,-9,31,0
3.3346664,-2,15,10.56893561,-13,31,0
3.419064199,-5,15,10.77768064,-8,31,0
3.458554611,-2,15,10.77768064,2,31,0
3.458554611,5,15,10.59441362,12,31,0
3.451144738,4,15,10.66997657,12,31,0
3.453751583,1,15,10.77517517,3,31,0
3.465486979,0,15,10.77517517,-2,31,0
3.459537541,-2,15,10.69244593,-6,31,0
3.453056617,-1,15,10.71156384,-11,31,0
3.559831457,-6,15,10.93771457,-10,31,0
3.716772794,-2,16,10.99265209,0,31,0
3.696971734,5,16,10.83381743,11,31,0
3.695186058,3,16,10.87014259,12,31,0
3.764518562,6,16,10.93656253,7,31,0
3.812663111,-11,16,10.81963031,-6,31,0
3.813082742,4,16,10.69833632,-5,31,0
3.805259518,2,16,10.65737303,-5,31,0
3.805049277,-2,16,10.80844115,-11,31,0
3.866988492,6,16,10.76104084,1,31,0
3.865953957,-4,16,10.61319933,9,31,0
3.862641583,1,16,10.62128053,9,31,0
3.94263871,4,16,10.82988458,10,33,0
3.968677362,0,16,10.82988458,-2,33,0
3.861657675,-4,16,10.7512976,-5,33,0
3.845464861,-3,16,10.68024344,-9,33,0
3.861813046,-2,16,10.86211766,-14,33,0
3.871382182,6,16,10.81080941,1,33,0
3.825232019,-3,16,10.67677854,8,33,0
3.757658846,3,16,10.68136695,9,33,0
3.787136121,1,16,10.81850267,9,33,0
3.791358596,-6,16,10.73208274,-3,33,0
3.791358596,4,16,10.62261738,-3,33,0
3.784230437,-1,16,10.5648663,-6,33,0
3.775499967,-2,16,10.74534318,-15,33,0
3.716396104,-1,16,10.74534318,-2,33,0
3.68,-4,16,10.58988196,5,33,0
3.603387295,6,16,10.49618978,12,33,0
3.721505072,7,16,10.67499883,13,33,0
3.75893602,-2,16,10.7483208,1,33,0
3.806100367,1,16,10.7483208,-2,33,0
3.780158727,-4,16,10.66817698,-10,33,0
3.811351466,-5,16,10.78139138,-14,33,0
3.950949253,-4,16,10.96767979,-7,34,0
3.97008816,3,16,10.88294078,4,34,0
3.916324808,0,16,10.75734168,11,34,0
3.918622207,6,16,10.86257796,14,34,0
3.980753697,4,16,10.90154118,1,34,0
3.965299484,-3,16,10.81593269,-2,34,0
3.815966457,-2,15,10.64638906,-7,34,0
3.808201675,-1,15,10.65692263,-9,34,0
3.835048891,-3,15,10.70954714,-5,34,0
3.764306045,4,15,10.58378004,0,34,0
3.61778938,0,15,10.39940383,9,34,0
3.606715958,1,15,10.50363747,13,34,0
3.617512958,1,15,10.64548731,5,34,0
3.681793041,3,15,10.69579357,-1,34,0
3.718117803,-1,15,10.63247854,-8,34,0
3.752812279,-8,15,10.63129343,-11,34,0
3.806573262,-1,15,10.84068264,-12,34,0
3.709932614,2,15,10.78460013,2,34,0
3.501770981,3,14,10.54544451,11,34,0
3.488552709,3,14,10.56834897,11,34,0
3.489469874,-2,14,10.65082156,4,34,0
3.423448554,-3,14,10.58453589,-1,34,0
3.321686319,2,14,10.56077649,-5,34,0
3.336165464,-3,14,10.56804618,-9,34,0
3.38047334,-1,14,10.81526699,-13,34,0
3.504511378,-3,14,10.86795289,1,34,0
3.451144738,7,14,10.75360405,10,34,0
3.466641026,2,14,10.77049674,11,34,0
3.514598128,2,14,10.90836376,8,34,0
3.547167884,2,14,10.85587399,0,34,0
3.482814953,-4,14,10.74074485,-6,34,0
3.482814953,-1,14,10.67550467,-6,34,0
3.495368364,-4,14,10.89221741,-17,34,0
3.666551513,-6,15,10.97786865,-2,34,0
3.762977544,2,15,10.91422924,7,34,0
3.769137832,8,15,10.89001377,11,34,0
3.769137832,1,15,10.98180313,10,34,0
3.739572168,-4,15,10.93939669,0,34,0
3.724996644,1,15,10.90768536,-3,34,0
3.736308338,3,15,10.87301246,-5,34,0
3.750253325,-5,15,10.98544492,-14,34,0
3.884790857,-5,15,11.03985507,-5,34,0
3.898717738,4,15,10.89741254,6,34,0
3.810721716,1,15,10.78228176,11,34,0
3.867247083,7,15,10.88529283,10,34,0
3.835413928,1,15,10.88529283,3,34,0
3.797051488,-3,15,10.81334361,-2,34,0
3.71784884,-1,15,10.67110116,-9,34,0
