EMGData,EMGData2,Label
0.5081967213114754,0.49918166939443537,0
0.5049180327868853,0.48936170212765956,0
0.5114754098360655,0.5040916530278232,0
0.5016393442622951,0.49427168576104746,0
0.5049180327868853,0.49427168576104746,0
0.5114754098360655,0.513911620294599,0
0.5016393442622951,0.5008183306055647,0
0.5081967213114754,0.502454991816694,0
0.5049180327868853,0.5057283142389526,0
0.5049180327868853,0.486088379705401,0
0.5114754098360655,0.5122749590834698,0
0.5049180327868853,0.49427168576104746,0
0.5049180327868853,0.49263502454991814,0
0.5114754098360655,0.5106382978723404,0
0.5049180327868853,0.4959083469721768,0
0.5081967213114754,0.5073649754500819,0
0.5049180327868853,0.502454991816694,0
0.5049180327868853,0.4909983633387889,0
0.5147540983606558,0.5090016366612111,0
0.5081967213114754,0.5008183306055647,0
0.5049180327868853,0.48936170212765956,0
0.5114754098360655,0.5040916530278232,0
0.5016393442622951,0.4877250409165303,0
0.5114754098360655,0.49918166939443537,0
0.5081967213114754,0.5057283142389526,0
0.5016393442622951,0.48936170212765956,0
0.5114754098360655,0.5090016366612111,0
0.5081967213114754,0.5008183306055647,0
0.5016393442622951,0.49427168576104746,0
0.5081967213114754,0.502454991816694,0
0.5016393442622951,0.4877250409165303,0
0.5147540983606558,0.4959083469721768,0
0.5081967213114754,0.5057283142389526,0
0.5016393442622951,0.4877250409165303,0
0.5081967213114754,0.5040916530278232,0
0.5049180327868853,0.502454991816694,0
0.5049180327868853,0.48936170212765956,0
0.5081967213114754,0.5106382978723404,0
0.5016393442622951,0.49918166939443537,0
0.5114754098360655,0.5008183306055647,0
0.5114754098360655,0.502454991816694,0
0.5049180327868853,0.49263502454991814,0
0.5147540983606558,0.5057283142389526,0
0.5049180327868853,0.49427168576104746,0
0.5049180327868853,0.49754500818330605,0
0.5114754098360655,0.5040916530278232,0
0.5049180327868853,0.4959083469721768,0
0.5081967213114754,0.49427168576104746,0
0.5081967213114754,0.49918166939443537,0
0.5016393442622951,0.4959083469721768,0
0.5081967213114754,0.5106382978723404,0
0.5049180327868853,0.5040916530278232,0
0.5081967213114754,0.4909983633387889,0
0.5081967213114754,0.5073649754500819,0
0.5016393442622951,0.48936170212765956,0
0.5049180327868853,0.5073649754500819,0
0.5081967213114754,0.502454991816694,0
0.49836065573770494,0.486088379705401,0
0.5114754098360655,0.5057283142389526,0
0.5049180327868853,0.48936170212765956,0
0.5049180327868853,0.4877250409165303,0
0.5114754098360655,0.5057283142389526,0
0.49836065573770494,0.49427168576104746,0
0.5081967213114754,0.5106382978723404,0
0.5081967213114754,0.502454991816694,0
0.5016393442622951,0.48936170212765956,0
0.5114754098360655,0.5057283142389526,0
0.5049180327868853,0.49754500818330605,0
0.5049180327868853,0.49754500818330605,0
0.5081967213114754,0.5073649754500819,0
0.5016393442622951,0.49918166939443537,0
0.5114754098360655,0.5008183306055647,0
0.5049180327868853,0.5040916530278232,0
0.5016393442622951,0.486088379705401,0
0.5114754098360655,0.513911620294599,0
0.5049180327868853,0.4959083469721768,0
0.5049180327868853,0.49263502454991814,0
0.5081967213114754,0.5073649754500819,0
0.5081967213114754,0.49427168576104746,0
0.5081967213114754,0.49918166939443537,0
0.5081967213114754,0.49918166939443537,0
0.5016393442622951,0.4959083469721768,0
0.5114754098360655,0.5220949263502455,0
0.5049180327868853,0.4959083469721768,0
0.5049180327868853,0.5008183306055647,0
0.5114754098360655,0.5040916530278232,0
0.49836065573770494,0.4877250409165303,0
0.5081967213114754,0.502454991816694,0
0.5081967213114754,0.5073649754500819,0
0.49836065573770494,0.4877250409165303,0
0.5114754098360655,0.5122749590834698,0
0.5049180327868853,0.502454991816694,0
0.5049180327868853,0.4959083469721768,0
0.5081967213114754,0.5090016366612111,0
0.5016393442622951,0.49427168576104746,0
0.5081967213114754,0.502454991816694,0
0.5081967213114754,0.49918166939443537,0
0.5016393442622951,0.49263502454991814,0
0.5114754098360655,0.5090016366612111,0
0.5016393442622951,0.5040916530278232,0
0.5049180327868853,0.48936170212765956,0
0.5081967213114754,0.5090016366612111,0
0.5016393442622951,0.4877250409165303,0
0.5081967213114754,0.5040916530278232,0
0.5081967213114754,0.502454991816694,0
0.5016393442622951,0.4959083469721768,0
0.5114754098360655,0.5090016366612111,0
0.5049180327868853,0.5040916530278232,0
0.5049180327868853,0.49427168576104746,0
0.5114754098360655,0.5073649754500819,0
0.5049180327868853,0.49427168576104746,0
0.5081967213114754,0.5073649754500819,0
0.5081967213114754,0.5073649754500819,0
0.5016393442622951,0.4909983633387889,0
0.5114754098360655,0.5106382978723404,0
0.5049180327868853,0.5057283142389526,0
0.5049180327868853,0.502454991816694,0
0.5081967213114754,0.5122749590834698,0
0.5049180327868853,0.4959083469721768,0
0.5081967213114754,0.5040916530278232,0
0.5081967213114754,0.5073649754500819,0
0.5016393442622951,0.49427168576104746,0
0.5081967213114754,0.502454991816694,0
0.5114754098360655,0.5090016366612111,0
0.5049180327868853,0.4959083469721768,0
0.5081967213114754,0.49918166939443537,0
0.5016393442622951,0.4909983633387889,0
0.5081967213114754,0.502454991816694,0
0.5081967213114754,0.5008183306055647,0
0.5016393442622951,0.49427168576104746,0
0.5081967213114754,0.5106382978723404,0
0.5049180327868853,0.5008183306055647,0
0.5016393442622951,0.49918166939443537,0
0.5081967213114754,0.5073649754500819,0
0.5016393442622951,0.4909983633387889,0
0.5081967213114754,0.5090016366612111,0
0.5049180327868853,0.5040916530278232,0
0.5049180327868853,0.4959083469721768,0
0.5114754098360655,0.5073649754500819,0
0.5049180327868853,0.49754500818330605,0
0.5049180327868853,0.49918166939443537,0
0.5081967213114754,0.5073649754500819,0
0.5049180327868853,0.49263502454991814,0
0.5049180327868853,0.5008183306055647,0
0.5081967213114754,0.502454991816694,0
0.5049180327868853,0.49263502454991814,0
0.5081967213114754,0.5122749590834698,0
0.5081967213114754,0.5155482815057283,0
0.5016393442622951,0.48936170212765956,0
0.5081967213114754,0.5155482815057283,0
0.5016393442622951,0.4959083469721768,0
0.49836065573770494,0.469721767594108,0
0.5114754098360655,0.5106382978723404,0
0.5016393442622951,0.4959083469721768,0
0.5016393442622951,0.49754500818330605,0
0.5081967213114754,0.5073649754500819,0
0.5016393442622951,0.4713584288052373,0
0.5114754098360655,0.5106382978723404,0
0.5016393442622951,0.49263502454991814,0
0.5049180327868853,0.49918166939443537,0
0.5114754098360655,0.4959083469721768,0
0.49836065573770494,0.502454991816694,0
0.5049180327868853,0.5008183306055647,0
0.5081967213114754,0.513911620294599,0
0.5016393442622951,0.4844517184942717,0
0.5114754098360655,0.5073649754500819,0
0.5081967213114754,0.49427168576104746,0
0.49836065573770494,0.4795417348608838,0
0.5081967213114754,0.49427168576104746,0
0.5016393442622951,0.49263502454991814,0
0.5081967213114754,0.49918166939443537,0
0.5049180327868853,0.49918166939443537,0
0.5016393442622951,0.4959083469721768,0
0.5081967213114754,0.5122749590834698,0
0.5049180327868853,0.49263502454991814,0
0.5016393442622951,0.49263502454991814,0
0.5114754098360655,0.5090016366612111,0
0.5016393442622951,0.49754500818330605,0
0.5049180327868853,0.5073649754500819,0
0.5049180327868853,0.4959083469721768,0
0.5049180327868853,0.48936170212765956,0
0.5114754098360655,0.513911620294599,0
0.5081967213114754,0.49918166939443537,0
0.5016393442622951,0.49427168576104746,0
0.5081967213114754,0.5057283142389526,0
0.49836065573770494,0.4909983633387889,0
0.5049180327868853,0.4909983633387889,0
0.5081967213114754,0.502454991816694,0
0.5016393442622951,0.49427168576104746,0
0.5114754098360655,0.5220949263502455,0
0.5016393442622951,0.49427168576104746,0
0.5081967213114754,0.4844517184942717,0
0.5114754098360655,0.49754500818330605,0
0.49836065573770494,0.502454991816694,0
0.5049180327868853,0.49754500818330605,0
0.5081967213114754,0.4959083469721768,0
0.5016393442622951,0.48936170212765956,0
0.5016393442622951,0.5073649754500819,0
0.5049180327868853,0.49918166939443537,0
0.5049180327868853,0.49754500818330605,0
0.5114754098360655,0.5122749590834698,0
0.5016393442622951,0.4909983633387889,0
0.5049180327868853,0.5106382978723404,0
0.5016393442622951,0.5368248772504092,0
0.5049180327868853,0.49263502454991814,0
0.5081967213114754,0.5106382978723404,0
0.5016393442622951,0.49918166939443537,0
0.5049180327868853,0.49754500818330605,0
0.5081967213114754,0.5008183306055647,0
0.5049180327868853,0.4877250409165303,0
0.5081967213114754,0.49918166939443537,0
0.5081967213114754,0.5008183306055647,0
0.5016393442622951,0.48117839607201307,0
0.5114754098360655,0.5057283142389526,0
0.5081967213114754,0.49263502454991814,0
0.5049180327868853,0.4959083469721768,0
0.5081967213114754,0.5122749590834698,0
0.5016393442622951,0.49754500818330605,0
0.5114754098360655,0.5090016366612111,0
0.5081967213114754,0.5171849427168577,0
0.5016393442622951,0.4844517184942717,0
0.5147540983606558,0.5155482815057283,0
0.5049180327868853,0.4959083469721768,0
0.5016393442622951,0.5040916530278232,0
0.5114754098360655,0.5057283142389526,0
0.5016393442622951,0.4828150572831424,0
0.5081967213114754,0.49754500818330605,0
0.5049180327868853,0.5040916530278232,0
0.5016393442622951,0.486088379705401,0
0.5081967213114754,0.5122749590834698,0
0.5016393442622951,0.4909983633387889,0
0.5049180327868853,0.48936170212765956,0
0.5081967213114754,0.5040916530278232,0
0.5049180327868853,0.4959083469721768,0
0.5049180327868853,0.502454991816694,0
0.5049180327868853,0.49263502454991814,0
0.5016393442622951,0.4795417348608838,0
0.5114754098360655,0.5106382978723404,0
0.5016393442622951,0.4909983633387889,0
0.5049180327868853,0.49754500818330605,0
0.5081967213114754,0.5122749590834698,0
0.5081967213114754,0.486088379705401,0
0.5049180327868853,0.49754500818330605,0
0.5081967213114754,0.5057283142389526,0
0.5016393442622951,0.49263502454991814,0
0.5114754098360655,0.5106382978723404,0
0.5049180327868853,0.5008183306055647,0
0.5016393442622951,0.49427168576104746,0
0.5081967213114754,0.5188216039279869,0
0.49836065573770494,0.4844517184942717,0
0.5081967213114754,0.49263502454991814,0
0.5081967213114754,0.5155482815057283,0
0.5016393442622951,0.49263502454991814,0
0.5114754098360655,0.5171849427168577,0
0.5049180327868853,0.49754500818330605,0
0.5016393442622951,0.49918166939443537,0
0.5081967213114754,0.5040916530278232,0
0.5016393442622951,0.48936170212765956,0
0.5081967213114754,0.49918166939443537,0
0.5081967213114754,0.5073649754500819,0
0.5016393442622951,0.49918166939443537,0
0.5081967213114754,0.513911620294599,0
0.5016393442622951,0.5008183306055647,0
0.5049180327868853,0.4959083469721768,0
0.5081967213114754,0.5057283142389526,0
0.5049180327868853,0.4877250409165303,0
0.5049180327868853,0.5040916530278232,0
0.5049180327868853,0.5040916530278232,0
0.5049180327868853,0.4909983633387889,0
0.5114754098360655,0.5040916530278232,0
0.5049180327868853,0.49918166939443537,0
0.5049180327868853,0.5057283142389526,0
0.5081967213114754,0.5057283142389526,0
0.5016393442622951,0.48117839607201307,0
0.5081967213114754,0.502454991816694,0
0.5049180327868853,0.49263502454991814,0
0.5016393442622951,0.5008183306055647,0
0.5114754098360655,0.49754500818330605,0
0.5049180327868853,0.49918166939443537,0
0.5081967213114754,0.49427168576104746,0
0.5081967213114754,0.5171849427168577,0
0.5016393442622951,0.49754500818330605,0
0.5049180327868853,0.513911620294599,0
0.5049180327868853,0.5040916530278232,0
0.5016393442622951,0.502454991816694,0
0.5049180327868853,0.4959083469721768,0
0.5049180327868853,0.4959083469721768,0
0.5049180327868853,0.502454991816694,0
0.5081967213114754,0.49918166939443537,0
0.5049180327868853,0.5008183306055647,0
0.5016393442622951,0.5188216039279869,0
0.5081967213114754,0.5073649754500819,0
0.5016393442622951,0.486088379705401,0
0.5114754098360655,0.5122749590834698,0
0.5081967213114754,0.502454991816694,0
0.5049180327868853,0.49918166939443537,0
0.5081967213114754,0.5073649754500819,0
0.5016393442622951,0.49918166939443537,0
0.5081967213114754,0.4959083469721768,0
0.5081967213114754,0.5057283142389526,0
0.5016393442622951,0.486088379705401,0
0.5114754098360655,0.5204582651391162,0
0.5016393442622951,0.502454991816694,0
0.5049180327868853,0.49427168576104746,0
0.5049180327868853,0.5008183306055647,0
0.5016393442622951,0.486088379705401,0
0.5049180327868853,0.5090016366612111,0
0.5049180327868853,0.5008183306055647,0
0.5016393442622951,0.48936170212765956,0
0.5147540983606558,0.5171849427168577,0
0.5081967213114754,0.48936170212765956,0
0.5081967213114754,0.4909983633387889,0
0.5049180327868853,0.49427168576104746,0
0.5016393442622951,0.48936170212765956,0
0.5049180327868853,0.49263502454991814,0
0.5081967213114754,0.5073649754500819,0
0.5081967213114754,0.4959083469721768,0
0.5049180327868853,0.5220949263502455,0
0.5049180327868853,0.5090016366612111,0
0.5016393442622951,0.4844517184942717,0
0.5081967213114754,0.5090016366612111,0
0.5016393442622951,0.502454991816694,0
0.5147540983606558,0.5040916530278232,0
0.5016393442622951,0.4959083469721768,0
0.5049180327868853,0.4909983633387889,0
0.5016393442622951,0.5073649754500819,0
0.49836065573770494,0.49918166939443537,0
0.5081967213114754,0.4844517184942717,0
0.5081967213114754,0.5073649754500819,0
0.5016393442622951,0.47299509001636664,0
0.5049180327868853,0.5204582651391162,0
0.5016393442622951,0.5073649754500819,0
0.5049180327868853,0.49754500818330605,0
0.5081967213114754,0.5171849427168577,0
0.5049180327868853,0.5040916530278232,0
0.5016393442622951,0.5040916530278232,0
0.5114754098360655,0.5155482815057283,0
0.5016393442622951,0.48936170212765956,0
0.5049180327868853,0.513911620294599,0
0.5049180327868853,0.502454991816694,0
0.5049180327868853,0.4959083469721768,0
0.5081967213114754,0.49918166939443537,0
0.5016393442622951,0.49754500818330605,0
0.5016393442622951,0.4959083469721768,0
0.5081967213114754,0.5073649754500819,0
0.5049180327868853,0.49263502454991814,0
0.5081967213114754,0.5090016366612111,0
0.5049180327868853,0.502454991816694,0
0.5016393442622951,0.4877250409165303,0
0.5081967213114754,0.5171849427168577,0
0.5049180327868853,0.49263502454991814,0
0.5049180327868853,0.5008183306055647,0
0.5114754098360655,0.5008183306055647,0
0.5016393442622951,0.49754500818330605,0
0.5016393442622951,0.49427168576104746,0
0.5081967213114754,0.49918166939443537,0
0.5049180327868853,0.49263502454991814,0
0.5081967213114754,0.5057283142389526,0
0.5049180327868853,0.4959083469721768,0
0.5049180327868853,0.502454991816694,0
0.5049180327868853,0.5040916530278232,0
0.5016393442622951,0.49427168576104746,0
0.5049180327868853,0.5008183306055647,0
0.5049180327868853,0.4959083469721768,0
0.5016393442622951,0.49754500818330605,0
0.5081967213114754,0.513911620294599,0
0.5081967213114754,0.5008183306055647,0
0.5049180327868853,0.5008183306055647,0
0.5081967213114754,0.49918166939443537,0
0.5016393442622951,0.49263502454991814,0
0.5081967213114754,0.513911620294599,0
0.5049180327868853,0.4959083469721768,0
0.5016393442622951,0.4909983633387889,0
0.5081967213114754,0.5057283142389526,0
0.5049180327868853,0.486088379705401,0
0.5081967213114754,0.49427168576104746,0
0.5049180327868853,0.49754500818330605,0
0.5016393442622951,0.486088379705401,0
0.5049180327868853,0.5057283142389526,0
0.5049180327868853,0.49918166939443537,0
0.5049180327868853,0.4959083469721768,0
0.5081967213114754,0.5122749590834698,0
0.5016393442622951,0.49754500818330605,0
0.5081967213114754,0.502454991816694,0
0.5049180327868853,0.49918166939443537,0
0.5016393442622951,0.4959083469721768,0
0.5114754098360655,0.49754500818330605,0
0.5081967213114754,0.5057283142389526,0
0.5049180327868853,0.49427168576104746,0
0.5114754098360655,0.5122749590834698,0
0.5049180327868853,0.49754500818330605,0
0.5081967213114754,0.4959083469721768,0
0.5081967213114754,0.49754500818330605,0
0.5016393442622951,0.49918166939443537,0
0.5114754098360655,0.5073649754500819,0
0.5049180327868853,0.4959083469721768,0
0.5016393442622951,0.5008183306055647,0
0.5081967213114754,0.5073649754500819,0
0.5049180327868853,0.5040916530278232,0
0.5049180327868853,0.49754500818330605,0
0.5081967213114754,0.5073649754500819,0
0.5049180327868853,0.49754500818330605,0
0.5081967213114754,0.49754500818330605,0
0.5049180327868853,0.5057283142389526,0
0.5016393442622951,0.486088379705401,0
0.5081967213114754,0.5204582651391162,0
0.5016393442622951,0.49263502454991814,0
0.5081967213114754,0.49427168576104746,0
0.5081967213114754,0.5008183306055647,0
0.5016393442622951,0.486088379705401,0
0.5049180327868853,0.49918166939443537,0
0.5049180327868853,0.49263502454991814,0
0.5016393442622951,0.4877250409165303,0
0.5081967213114754,0.5008183306055647,0
0.5049180327868853,0.4959083469721768,0
0.5049180327868853,0.5057283142389526,0
0.5081967213114754,0.49754500818330605,0
0.5016393442622951,0.48936170212765956,0
0.5081967213114754,0.5073649754500819,0
0.5016393442622951,0.49754500818330605,0
0.5049180327868853,0.49263502454991814,0
0.5081967213114754,0.5106382978723404,0
0.5049180327868853,0.5040916530278232,0
0.5049180327868853,0.49427168576104746,0
0.5049180327868853,0.49754500818330605,0
0.5016393442622951,0.4959083469721768,0
0.5081967213114754,0.5090016366612111,0
0.5081967213114754,0.5073649754500819,0
0.5049180327868853,0.4909983633387889,0
0.5114754098360655,0.5122749590834698,0
0.5016393442622951,0.4877250409165303,0
0.5049180327868853,0.502454991816694,0
0.5081967213114754,0.5008183306055647,0
0.5016393442622951,0.49263502454991814,0
0.5114754098360655,0.5073649754500819,0
0.5049180327868853,0.5008183306055647,0
0.5049180327868853,0.4828150572831424,0
0.5081967213114754,0.5106382978723404,0
0.5049180327868853,0.49427168576104746,0
0.5081967213114754,0.5057283142389526,0
0.5049180327868853,0.5073649754500819,0
0.5016393442622951,0.49427168576104746,0
0.5016393442622951,0.49918166939443537,0
0.5049180327868853,0.5008183306055647,0
0.5049180327868853,0.4909983633387889,0
0.5081967213114754,0.5122749590834698,0
0.5016393442622951,0.49918166939443537,0
0.5049180327868853,0.5057283142389526,0
0.5081967213114754,0.5057283142389526,0
0.5016393442622951,0.4877250409165303,0
0.5114754098360655,0.5057283142389526,0
0.5081967213114754,0.49754500818330605,0
0.5016393442622951,0.49263502454991814,0
0.5081967213114754,0.502454991816694,0
0.5016393442622951,0.49754500818330605,0
0.5049180327868853,0.49427168576104746,0
0.5081967213114754,0.49754500818330605,0
0.5016393442622951,0.49427168576104746,0
0.5081967213114754,0.5073649754500819,0
0.5049180327868853,0.5008183306055647,0
0.5016393442622951,0.49263502454991814,0
0.5114754098360655,0.5122749590834698,0
0.5016393442622951,0.48936170212765956,0
0.5081967213114754,0.49754500818330605,0
0.5081967213114754,0.5106382978723404,0
0.5049180327868853,0.49918166939443537,0
0.5049180327868853,0.5090016366612111,0
0.5049180327868853,0.49754500818330605,0
0.49836065573770494,0.49754500818330605,0
0.5081967213114754,0.5008183306055647,0
0.49836065573770494,0.502454991816694,0
0.5081967213114754,0.502454991816694,0
0.5049180327868853,0.5040916530278232,0
0.5016393442622951,0.486088379705401,0
0.5081967213114754,0.5106382978723404,0
0.5016393442622951,0.5057283142389526,0
0.5016393442622951,0.4844517184942717,0
0.5081967213114754,0.502454991816694,0
0.5016393442622951,0.49427168576104746,0
0.5049180327868853,0.502454991816694,0
0.5049180327868853,0.4959083469721768,0
0.49836065573770494,0.49918166939443537,0
0.5049180327868853,0.502454991816694,0
0.5016393442622951,0.49754500818330605,0
0.5016393442622951,0.4959083469721768,0
0.5081967213114754,0.5008183306055647,0
0.5016393442622951,0.4959083469721768,0
0.5049180327868853,0.5008183306055647,0
0.5081967213114754,0.5057283142389526,0
0.5049180327868853,0.486088379705401,0
0.5114754098360655,0.5090016366612111,0
0.5016393442622951,0.5057283142389526,0
0.5049180327868853,0.49427168576104746,0
0.5081967213114754,0.5106382978723404,0
0.5016393442622951,0.4959083469721768,0
0.5049180327868853,0.4959083469721768,0
0.5081967213114754,0.5073649754500819,0
0.5016393442622951,0.48936170212765956,0
0.5049180327868853,0.5090016366612111,0
0.5016393442622951,0.4959083469721768,0
0.5016393442622951,0.49754500818330605,0
0.5081967213114754,0.5073649754500819,0
0.5049180327868853,0.49754500818330605,0
0.5081967213114754,0.502454991816694,0
0.5081967213114754,0.5008183306055647,0
0.5016393442622951,0.4877250409165303,0
0.5081967213114754,0.5106382978723404,0
0.5049180327868853,0.5008183306055647,0
0.5049180327868853,0.48936170212765956,0
0.5081967213114754,0.5057283142389526,0
0.5049180327868853,0.49754500818330605,0
0.5081967213114754,0.49754500818330605,0
0.5049180327868853,0.4959083469721768,0
0.49836065573770494,0.4959083469721768,0
0.5114754098360655,0.5057283142389526,0
0.5049180327868853,0.49263502454991814,0
0.5016393442622951,0.49263502454991814,0
0.5049180327868853,0.502454991816694,0
0.5016393442622951,0.49427168576104746,0
0.5049180327868853,0.502454991816694,0
0.5049180327868853,0.49918166939443537,0
0.5016393442622951,0.4959083469721768,0
0.5114754098360655,0.5171849427168577,0
0.5049180327868853,0.49918166939443537,0
0.5081967213114754,0.49427168576104746,0
0.5114754098360655,0.5073649754500819,0
0.5016393442622951,0.48936170212765956,0
0.5081967213114754,0.5040916530278232,0
0.5049180327868853,0.5122749590834698,0
0.5049180327868853,0.4877250409165303,0
0.5114754098360655,0.5122749590834698,0
0.5081967213114754,0.49263502454991814,0
0.5049180327868853,0.4959083469721768,0
0.5081967213114754,0.5057283142389526,0
0.5016393442622951,0.48936170212765956,0
0.5081967213114754,0.49918166939443537,0
0.5049180327868853,0.5057283142389526,0
0.5016393442622951,0.4909983633387889,0
0.5081967213114754,0.5040916530278232,0
0.5049180327868853,0.4909983633387889,0
0.5049180327868853,0.502454991816694,0
0.5081967213114754,0.5073649754500819,0
0.5049180327868853,0.48936170212765956,0
0.5114754098360655,0.5057283142389526,0
0.5081967213114754,0.49263502454991814,0
0.5016393442622951,0.49754500818330605,0
0.5114754098360655,0.5155482815057283,0
0.5049180327868853,0.4959083469721768,0
0.5049180327868853,0.5008183306055647,0
0.5114754098360655,0.5008183306055647,0
0.5016393442622951,0.49918166939443537,0
0.5049180327868853,0.5057283142389526,0
0.5049180327868853,0.5008183306055647,0
0.5049180327868853,0.4959083469721768,0
0.5081967213114754,0.5090016366612111,0
0.5049180327868853,0.5008183306055647,0
0.5016393442622951,0.49263502454991814,0
0.5081967213114754,0.5090016366612111,0
0.5016393442622951,0.4909983633387889,0
0.5049180327868853,0.502454991816694,0
0.5049180327868853,0.49754500818330605,0
0.5016393442622951,0.4909983633387889,0
0.5114754098360655,0.5073649754500819,0
0.5016393442622951,0.49918166939443537,0
0.5049180327868853,0.4959083469721768,0
0.5081967213114754,0.5122749590834698,0
0.5016393442622951,0.49263502454991814,0
0.5081967213114754,0.49918166939443537,0
0.5081967213114754,0.49427168576104746,0
0.5016393442622951,0.5008183306055647,0
0.5114754098360655,0.5106382978723404,0
0.5049180327868853,0.4909983633387889,0
0.5016393442622951,0.49918166939443537,0
0.5081967213114754,0.502454991816694,0
0.5016393442622951,0.49754500818330605,0
0.5081967213114754,0.5008183306055647,0
0.5049180327868853,0.4959083469721768,0
0.5049180327868853,0.49263502454991814,0
0.5114754098360655,0.5040916530278232,0
0.5016393442622951,0.4909983633387889,0
0.5049180327868853,0.48936170212765956,0
0.5081967213114754,0.5073649754500819,0
0.5016393442622951,0.4877250409165303,0
0.5081967213114754,0.5008183306055647,0
0.5049180327868853,0.5106382978723404,0
0.5016393442622951,0.49918166939443537,0
0.5081967213114754,0.5090016366612111,0
0.5016393442622951,0.5008183306055647,0
0.5016393442622951,0.4909983633387889,0
0.5081967213114754,0.5106382978723404,0
0.5049180327868853,0.4877250409165303,0
0.5049180327868853,0.5090016366612111,0
0.5049180327868853,0.4959083469721768,0
0.5016393442622951,0.48936170212765956,0
0.5114754098360655,0.5122749590834698,0
0.5049180327868853,0.49427168576104746,0
0.5049180327868853,0.5008183306055647,0
0.5081967213114754,0.5090016366612111,0
0.5016393442622951,0.49263502454991814,0
0.5081967213114754,0.5040916530278232,0
0.5016393442622951,0.5057283142389526,0
0.5049180327868853,0.4844517184942717,0
0.5114754098360655,0.5057283142389526,0
0.5049180327868853,0.49427168576104746,0
0.5049180327868853,0.4909983633387889,0
0.5081967213114754,0.49754500818330605,0
0.5016393442622951,0.486088379705401,0
0.5081967213114754,0.5106382978723404,0
0.5049180327868853,0.49427168576104746,0
0.5049180327868853,0.49754500818330605,0
0.5114754098360655,0.5106382978723404,0
0.5049180327868853,0.502454991816694,0
0.5049180327868853,0.4959083469721768,0
0.5049180327868853,0.49918166939443537,0
0.5016393442622951,0.4909983633387889,0
0.5081967213114754,0.4959083469721768,0
0.5049180327868853,0.5057283142389526,0
0.5049180327868853,0.486088379705401,0
0.5081967213114754,0.513911620294599,0
0.5049180327868853,0.49263502454991814,0
0.5049180327868853,0.49263502454991814,0
0.5081967213114754,0.5073649754500819,0
0.5016393442622951,0.4909983633387889,0
0.5081967213114754,0.5040916530278232,0
0.5016393442622951,0.5122749590834698,0
0.5049180327868853,0.49427168576104746,0
0.5081967213114754,0.5057283142389526,0
0.5016393442622951,0.49754500818330605,0
0.5049180327868853,0.49263502454991814,0
0.5081967213114754,0.5106382978723404,0
0.49836065573770494,0.48936170212765956,0
0.5049180327868853,0.4959083469721768,0
0.5081967213114754,0.49918166939443537,0
0.5016393442622951,0.49754500818330605,0
0.5114754098360655,0.513911620294599,0
0.49836065573770494,0.5008183306055647,0
0.5049180327868853,0.5008183306055647,0
0.5081967213114754,0.49918166939443537,0
0.49836065573770494,0.49263502454991814,0
0.5081967213114754,0.5106382978723404,0
0.5049180327868853,0.5008183306055647,0
0.5016393442622951,0.4959083469721768,0
0.5081967213114754,0.513911620294599,0
0.5049180327868853,0.49427168576104746,0
0.5049180327868853,0.49918166939443537,0
0.5081967213114754,0.502454991816694,0
0.5016393442622951,0.5040916530278232,0
0.5081967213114754,0.5057283142389526,0
0.5081967213114754,0.49427168576104746,0
0.5049180327868853,0.49754500818330605,0
0.5081967213114754,0.5057283142389526,0
0.5049180327868853,0.49754500818330605,0
0.5081967213114754,0.4959083469721768,0
0.5081967213114754,0.5040916530278232,0
0.49836065573770494,0.49918166939443537,0
0.5081967213114754,0.5073649754500819,0
0.5049180327868853,0.502454991816694,0
0.5049180327868853,0.49427168576104746,0
0.5114754098360655,0.513911620294599,0
0.5049180327868853,0.4877250409165303,0
0.5049180327868853,0.502454991816694,0
0.5081967213114754,0.5008183306055647,0
0.5016393442622951,0.49918166939443537,0
0.5081967213114754,0.5057283142389526,0
0.5049180327868853,0.5057283142389526,0
0.5016393442622951,0.49263502454991814,0
0.5081967213114754,0.5106382978723404,0
0.5016393442622951,0.4959083469721768,0
0.5049180327868853,0.4959083469721768,0
0.5081967213114754,0.49918166939443537,0
0.5016393442622951,0.49754500818330605,0
0.5081967213114754,0.5073649754500819,0
0.5049180327868853,0.502454991816694,0
0.5016393442622951,0.49427168576104746,0
0.5081967213114754,0.5040916530278232,0
0.5016393442622951,0.5008183306055647,0
0.5081967213114754,0.49754500818330605,0
0.5081967213114754,0.5008183306055647,0
0.5016393442622951,0.48936170212765956,0
0.5081967213114754,0.5155482815057283,0
0.5049180327868853,0.49918166939443537,0
0.5049180327868853,0.49263502454991814,0
0.5081967213114754,0.5122749590834698,0
0.5049180327868853,0.49754500818330605,0
0.5081967213114754,0.49754500818330605,0
0.5049180327868853,0.49918166939443537,0
0.5016393442622951,0.4959083469721768,0
0.5081967213114754,0.5090016366612111,0
0.5081967213114754,0.49754500818330605,0
0.5016393442622951,0.49754500818330605,0
0.5081967213114754,0.5057283142389526,0
0.5049180327868853,0.49427168576104746,0
0.5049180327868853,0.49754500818330605,0
0.5049180327868853,0.49754500818330605,0
0.5016393442622951,0.4959083469721768,0
0.5081967213114754,0.5090016366612111,0
0.5049180327868853,0.49263502454991814,0
0.5016393442622951,0.4909983633387889,0
0.5081967213114754,0.5090016366612111,0
0.5049180327868853,0.49427168576104746,0
0.5081967213114754,0.49918166939443537,0
0.5081967213114754,0.5057283142389526,0
0.5016393442622951,0.48936170212765956,0
0.5081967213114754,0.5073649754500819,0
0.5016393442622951,0.49754500818330605,0
0.5049180327868853,0.4909983633387889,0
0.5081967213114754,0.502454991816694,0
0.5049180327868853,0.4909983633387889,0
0.5049180327868853,0.49754500818330605,0
0.5049180327868853,0.49918166939443537,0
0.5016393442622951,0.4877250409165303,0
0.5049180327868853,0.5106382978723404,0
0.5049180327868853,0.5008183306055647,0
0.5049180327868853,0.4909983633387889,0
0.5081967213114754,0.5106382978723404,0
0.5016393442622951,0.4959083469721768,0
0.5081967213114754,0.5040916530278232,0
0.5081967213114754,0.5057283142389526,0
0.5016393442622951,0.486088379705401,0
0.5147540983606558,0.49918166939443537,0
0.5049180327868853,0.5040916530278232,0
0.5016393442622951,0.4959083469721768,0
0.5049180327868853,0.5122749590834698,0
0.5114754098360655,0.4959083469721768,0
0.5049180327868853,0.49918166939443537,0
0.5081967213114754,0.5073649754500819,0
0.5081967213114754,0.4909983633387889,0
0.5180327868852459,0.5188216039279869,0
0.5016393442622951,0.4959083469721768,0
0.5016393442622951,0.4959083469721768,0
0.5540983606557377,0.5220949263502455,0
0.5016393442622951,0.4909983633387889,0
0.5049180327868853,0.5040916530278232,0
0.5081967213114754,0.49754500818330605,0
0.5016393442622951,0.4877250409165303,0
0.5114754098360655,0.5106382978723404,0
0.49836065573770494,0.48936170212765956,0
0.5049180327868853,0.4959083469721768,0
0.5081967213114754,0.5122749590834698,0
0.5147540983606558,0.49427168576104746,0
0.5081967213114754,0.49918166939443537,0
0.5147540983606558,0.5090016366612111,0
0.5049180327868853,0.49427168576104746,0
0.5049180327868853,0.5188216039279869,0
0.5016393442622951,0.4909983633387889,0
0.5049180327868853,0.49263502454991814,0
0.5081967213114754,0.502454991816694,0
0.5016393442622951,0.5090016366612111,0
0.5049180327868853,0.4959083469721768,0
0.5114754098360655,0.5073649754500819,0
0.5016393442622951,0.486088379705401,0
0.5180327868852459,0.5040916530278232,0
0.49508196721311476,0.49263502454991814,0
0.49836065573770494,0.4959083469721768,0
0.5049180327868853,0.5106382978723404,0
0.5016393442622951,0.4909983633387889,0
0.5016393442622951,0.49263502454991814,0
0.5081967213114754,0.502454991816694,0
0.5016393442622951,0.49754500818330605,0
0.5081967213114754,0.5122749590834698,0
0.5081967213114754,0.5057283142389526,0
0.5016393442622951,0.49754500818330605,0
0.5081967213114754,0.5040916530278232,0
0.5016393442622951,0.502454991816694,0
0.5049180327868853,0.5008183306055647,0
0.5081967213114754,0.5073649754500819,0
0.4918032786885246,0.49427168576104746,0
0.5081967213114754,0.502454991816694,0
0.5049180327868853,0.49754500818330605,0
0.5081967213114754,0.4959083469721768,0
0.5081967213114754,0.49918166939443537,0
0.5081967213114754,0.49918166939443537,0
0.5081967213114754,0.49427168576104746,0
0.5081967213114754,0.502454991816694,0
0.5016393442622951,0.49918166939443537,0
0.5049180327868853,0.5057283142389526,0
0.5049180327868853,0.49427168576104746,0
0.5049180327868853,0.49263502454991814,0
0.5081967213114754,0.5040916530278232,0
0.5016393442622951,0.49427168576104746,0
0.5081967213114754,0.5073649754500819,0
0.5081967213114754,0.5073649754500819,0
0.5016393442622951,0.49754500818330605,0
0.5081967213114754,0.502454991816694,0
0.5114754098360655,0.49263502454991814,0
0.5049180327868853,0.4959083469721768,0
0.5049180327868853,0.5008183306055647,0
0.5016393442622951,0.49427168576104746,0
0.5049180327868853,0.49918166939443537,0
0.5049180327868853,0.502454991816694,0
0.5049180327868853,0.49754500818330605,0
0.5081967213114754,0.5090016366612111,0
0.5049180327868853,0.49754500818330605,0
0.5049180327868853,0.49754500818330605,0
0.5049180327868853,0.49918166939443537,0
0.5049180327868853,0.5008183306055647,0
0.5081967213114754,0.5073649754500819,0
0.5049180327868853,0.502454991816694,0
0.5049180327868853,0.49263502454991814,0
0.5114754098360655,0.5106382978723404,0
0.5049180327868853,0.4909983633387889,0
0.5049180327868853,0.49754500818330605,0
0.5049180327868853,0.5057283142389526,0
0.5049180327868853,0.49918166939443537,0
0.5081967213114754,0.5008183306055647,0
0.5049180327868853,0.49918166939443537,0
0.5016393442622951,0.49263502454991814,0
0.5081967213114754,0.5106382978723404,0
0.5016393442622951,0.4959083469721768,0
0.5016393442622951,0.49918166939443537,0
0.5081967213114754,0.5057283142389526,0
0.5049180327868853,0.49427168576104746,0
0.5049180327868853,0.513911620294599,0
0.5081967213114754,0.49918166939443537,0
0.5016393442622951,0.486088379705401,0
0.5114754098360655,0.5220949263502455,0
0.5049180327868853,0.49918166939443537,0
0.5049180327868853,0.49263502454991814,0
0.5081967213114754,0.5073649754500819,0
0.5016393442622951,0.5040916530278232,0
0.5081967213114754,0.5040916530278232,0
0.5081967213114754,0.5008183306055647,0
0.5016393442622951,0.4877250409165303,0
0.5081967213114754,0.5057283142389526,0
0.5049180327868853,0.49918166939443537,0
0.5049180327868853,0.502454991816694,0
0.5081967213114754,0.502454991816694,0
0.5049180327868853,0.49754500818330605,0
0.5081967213114754,0.5040916530278232,0
0.5049180327868853,0.5040916530278232,0
0.5016393442622951,0.49427168576104746,0
0.5114754098360655,0.502454991816694,0
0.5049180327868853,0.49427168576104746,0
0.5049180327868853,0.49427168576104746,0
0.5081967213114754,0.5073649754500819,0
0.5016393442622951,0.49754500818330605,0
0.5081967213114754,0.5008183306055647,0
0.5049180327868853,0.5040916530278232,0
0.5016393442622951,0.49754500818330605,0
0.5114754098360655,0.5073649754500819,0
0.5049180327868853,0.49263502454991814,0
0.5049180327868853,0.49754500818330605,0
0.5049180327868853,0.5073649754500819,0
0.49836065573770494,0.48936170212765956,0
0.5049180327868853,0.5040916530278232,0
0.5049180327868853,0.5008183306055647,0
0.5049180327868853,0.4959083469721768,0
0.5114754098360655,0.5122749590834698,0
0.5049180327868853,0.49427168576104746,0
0.5049180327868853,0.49754500818330605,0
0.5081967213114754,0.5090016366612111,0
0.5016393442622951,0.48936170212765956,0
0.5114754098360655,0.5057283142389526,0
0.5049180327868853,0.49754500818330605,0
0.5049180327868853,0.49263502454991814,0
0.5114754098360655,0.5106382978723404,0
0.5049180327868853,0.5073649754500819,0
0.5049180327868853,0.4959083469721768,0
0.5081967213114754,0.5008183306055647,0
0.5016393442622951,0.4877250409165303,0
0.5049180327868853,0.502454991816694,0
0.5081967213114754,0.502454991816694,0
0.5049180327868853,0.49263502454991814,0
0.5081967213114754,0.5090016366612111,0
0.5049180327868853,0.49427168576104746,0
0.5049180327868853,0.4959083469721768,0
0.5081967213114754,0.5155482815057283,0
0.5016393442622951,0.49754500818330605,0
0.5114754098360655,0.5008183306055647,0
0.5049180327868853,0.5106382978723404,0
0.5049180327868853,0.48936170212765956,0
0.5081967213114754,0.5008183306055647,0
0.5016393442622951,0.49427168576104746,0
0.5049180327868853,0.5008183306055647,0
0.5081967213114754,0.5008183306055647,0
0.5049180327868853,0.4909983633387889,0
0.5114754098360655,0.5106382978723404,0
0.5049180327868853,0.49263502454991814,0
0.5016393442622951,0.49754500818330605,0
0.5114754098360655,0.5122749590834698,0
0.5016393442622951,0.49263502454991814,0
0.5016393442622951,0.49427168576104746,0
0.5049180327868853,0.502454991816694,0
0.5016393442622951,0.49918166939443537,0
0.5081967213114754,0.5040916530278232,0
0.5049180327868853,0.5040916530278232,0
0.5016393442622951,0.4959083469721768,0
0.5114754098360655,0.5090016366612111,0
0.5049180327868853,0.49427168576104746,0
0.5081967213114754,0.49754500818330605,0
0.5081967213114754,0.5106382978723404,0
0.5016393442622951,0.4909983633387889,0
0.5049180327868853,0.49918166939443537,0
0.5016393442622951,0.5008183306055647,0
0.5016393442622951,0.49918166939443537,0
0.5081967213114754,0.5040916530278232,0
0.5016393442622951,0.5040916530278232,0
0.5081967213114754,0.49918166939443537,0
0.5081967213114754,0.5057283142389526,0
0.5016393442622951,0.4909983633387889,0
0.5016393442622951,0.49918166939443537,0
0.5049180327868853,0.502454991816694,0
0.5016393442622951,0.5008183306055647,0
0.5114754098360655,0.49918166939443537,0
0.5016393442622951,0.5008183306055647,0
0.5081967213114754,0.5008183306055647,0
0.5081967213114754,0.5090016366612111,0
0.5016393442622951,0.4828150572831424,0
0.5081967213114754,0.5106382978723404,0
0.5049180327868853,0.513911620294599,0
0.5016393442622951,0.48936170212765956,0
0.5081967213114754,0.5057283142389526,0
0.5049180327868853,0.49918166939443537,0
0.5049180327868853,0.502454991816694,0
0.5049180327868853,0.502454991816694,0
0.5016393442622951,0.5008183306055647,0
0.5049180327868853,0.5106382978723404,0
0.5049180327868853,0.5155482815057283,0
0.5016393442622951,0.486088379705401,0
0.5081967213114754,0.5090016366612111,0
0.5016393442622951,0.49427168576104746,0
0.5049180327868853,0.49918166939443537,0
0.5049180327868853,0.49263502454991814,0
0.5016393442622951,0.5040916530278232,0
0.5081967213114754,0.49918166939443537,0
0.5049180327868853,0.49263502454991814,0
0.5049180327868853,0.49427168576104746,0
0.5081967213114754,0.502454991816694,0
0.5016393442622951,0.5040916530278232,0
0.5081967213114754,0.486088379705401,0
0.5081967213114754,0.5057283142389526,0
0.5016393442622951,0.49263502454991814,0
0.5081967213114754,0.5040916530278232,0
0.5049180327868853,0.502454991816694,0
0.5049180327868853,0.49427168576104746,0
0.5081967213114754,0.5090016366612111,0
0.5049180327868853,0.49263502454991814,0
0.5081967213114754,0.4909983633387889,0
0.5049180327868853,0.4959083469721768,0
0.5049180327868853,0.48936170212765956,0
0.5081967213114754,0.5122749590834698,0
0.5049180327868853,0.4959083469721768,0
0.5016393442622951,0.5040916530278232,0
0.5081967213114754,0.49754500818330605,0
0.5049180327868853,0.5040916530278232,0
0.5049180327868853,0.49754500818330605,0
0.5081967213114754,0.502454991816694,0
0.5016393442622951,0.4959083469721768,0
0.5114754098360655,0.5106382978723404,0
0.5049180327868853,0.502454991816694,0
0.5049180327868853,0.4959083469721768,0
0.5081967213114754,0.5008183306055647,0
0.49836065573770494,0.5073649754500819,0
0.5049180327868853,0.5040916530278232,0
0.5081967213114754,0.5008183306055647,0
0.5016393442622951,0.48936170212765956,0
0.5049180327868853,0.5073649754500819,0
0.5049180327868853,0.4877250409165303,0
0.5049180327868853,0.49754500818330605,0
0.5049180327868853,0.5090016366612111,0
0.5049180327868853,0.49427168576104746,0
0.5049180327868853,0.5008183306055647,0
0.5049180327868853,0.5057283142389526,0
0.5049180327868853,0.49263502454991814,0
0.5049180327868853,0.49918166939443537,0
0.5081967213114754,0.5040916530278232,0
0.5016393442622951,0.4909983633387889,0
0.5081967213114754,0.5040916530278232,0
0.5016393442622951,0.4909983633387889,0
0.5049180327868853,0.49754500818330605,0
0.5049180327868853,0.49754500818330605,0
0.5016393442622951,0.4877250409165303,0
0.5049180327868853,0.5090016366612111,0
0.5081967213114754,0.49263502454991814,0
0.5049180327868853,0.4909983633387889,0
0.5081967213114754,0.5008183306055647,0
0.49836065573770494,0.502454991816694,0
0.5081967213114754,0.5008183306055647,0
0.5081967213114754,0.5106382978723404,0
0.5016393442622951,0.48936170212765956,0
0.5114754098360655,0.5090016366612111,0
0.5049180327868853,0.4959083469721768,0
0.5049180327868853,0.49754500818330605,0
0.5081967213114754,0.5122749590834698,0
0.5016393442622951,0.4959083469721768,0
0.5081967213114754,0.49918166939443537,0
0.5049180327868853,0.49918166939443537,0
0.5049180327868853,0.4909983633387889,0
0.5049180327868853,0.513911620294599,0
0.5016393442622951,0.48936170212765956,0
0.5081967213114754,0.49918166939443537,0
0.5081967213114754,0.5008183306055647,0
0.5016393442622951,0.49754500818330605,0
0.5081967213114754,0.5040916530278232,0
0.5049180327868853,0.49918166939443537,0
0.5016393442622951,0.48936170212765956,0
0.5114754098360655,0.502454991816694,0
0.5081967213114754,0.49754500818330605,0
0.5049180327868853,0.5008183306055647,0
0.5081967213114754,0.502454991816694,0
0.5016393442622951,0.49427168576104746,0
0.5049180327868853,0.5073649754500819,0
0.5049180327868853,0.5008183306055647,0
0.5016393442622951,0.48936170212765956,0
0.5114754098360655,0.5090016366612111,0
0.5049180327868853,0.5008183306055647,0
0.5049180327868853,0.49427168576104746,0
0.5081967213114754,0.5040916530278232,0
0.5016393442622951,0.4909983633387889,0
0.5081967213114754,0.49918166939443537,0
0.5081967213114754,0.5040916530278232,0
0.5016393442622951,0.486088379705401,0
0.5081967213114754,0.5057283142389526,0
0.5049180327868853,0.5008183306055647,0
0.5049180327868853,0.4959083469721768,0
0.5081967213114754,0.5106382978723404,0
0.49836065573770494,0.48936170212765956,0
0.5114754098360655,0.5073649754500819,0
0.5049180327868853,0.49754500818330605,0
0.5016393442622951,0.48936170212765956,0
0.5114754098360655,0.5090016366612111,0
0.5049180327868853,0.49263502454991814,0
0.5016393442622951,0.49427168576104746,0
0.5081967213114754,0.49918166939443537,0
0.5016393442622951,0.4959083469721768,0
0.5114754098360655,0.5040916530278232,0
0.5049180327868853,0.49918166939443537,0
0.5049180327868853,0.4909983633387889,0
0.5114754098360655,0.5106382978723404,0
0.5049180327868853,0.49427168576104746,0
0.5016393442622951,0.5040916530278232,0
0.5114754098360655,0.5008183306055647,0
0.5016393442622951,0.49427168576104746,0
0.5081967213114754,0.502454991816694,0
0.5081967213114754,0.502454991816694,0
0.5016393442622951,0.49754500818330605,0
0.5147540983606558,0.5122749590834698,0
0.5049180327868853,0.49427168576104746,0
0.5016393442622951,0.4959083469721768,0
0.5081967213114754,0.5073649754500819,0
0.5016393442622951,0.4877250409165303,0
0.5049180327868853,0.5057283142389526,0
0.5049180327868853,0.5008183306055647,0
0.5016393442622951,0.48936170212765956,0
0.5114754098360655,0.5155482815057283,0
0.5016393442622951,0.5040916530278232,0
0.5049180327868853,0.5040916530278232,0
0.5081967213114754,0.4959083469721768,0
0.5016393442622951,0.4909983633387889,0
0.5081967213114754,0.5073649754500819,0
0.5016393442622951,0.5057283142389526,0
0.5049180327868853,0.4909983633387889,0
0.5081967213114754,0.5122749590834698,0
0.5049180327868853,0.49754500818330605,0
0.5049180327868853,0.4909983633387889,0
0.5081967213114754,0.5057283142389526,0
0.5016393442622951,0.49427168576104746,0
0.5081967213114754,0.5057283142389526,0
0.5081967213114754,0.5008183306055647,0
0.5049180327868853,0.4909983633387889,0
0.5114754098360655,0.5040916530278232,0
0.5049180327868853,0.486088379705401,0
0.49836065573770494,0.49427168576104746,0
0.5081967213114754,0.5073649754500819,0
0.5049180327868853,0.4909983633387889,0
0.5081967213114754,0.5008183306055647,0
0.5016393442622951,0.49918166939443537,0
0.5049180327868853,0.4877250409165303,0
0.5081967213114754,0.5040916530278232,0
0.5049180327868853,0.5008183306055647,0
0.5049180327868853,0.4959083469721768,0
0.5081967213114754,0.5090016366612111,0
0.5016393442622951,0.4959083469721768,0
0.5081967213114754,0.5122749590834698,0
0.5016393442622951,0.5057283142389526,0
0.5016393442622951,0.4877250409165303,0
0.5081967213114754,0.5171849427168577,0
0.49836065573770494,0.49427168576104746,0
0.5081967213114754,0.49754500818330605,0
0.5049180327868853,0.5073649754500819,0
0.5016393442622951,0.49427168576104746,0
0.5114754098360655,0.5090016366612111,0
0.5049180327868853,0.4959083469721768,0
0.5049180327868853,0.4959083469721768,0
0.5081967213114754,0.5106382978723404,0
0.5016393442622951,0.502454991816694,0
0.5081967213114754,0.49918166939443537,0
0.5049180327868853,0.5040916530278232,0
0.49836065573770494,0.4959083469721768,0
0.5081967213114754,0.502454991816694,0
0.5016393442622951,0.49427168576104746,0
0.5016393442622951,0.486088379705401,0
0.5114754098360655,0.502454991816694,0
0.5049180327868853,0.48936170212765956,0
0.5049180327868853,0.49918166939443537,0
0.5081967213114754,0.502454991816694,0
0.5016393442622951,0.49427168576104746,0
0.5114754098360655,0.5073649754500819,0
0.5049180327868853,0.4959083469721768,0
0.5049180327868853,0.49263502454991814,0
0.5114754098360655,0.5040916530278232,0
0.5016393442622951,0.49754500818330605,0
0.5081967213114754,0.5057283142389526,0
0.5081967213114754,0.5040916530278232,0
0.5049180327868853,0.4959083469721768,0
0.5049180327868853,0.5090016366612111,0
0.5049180327868853,0.5008183306055647,0
0.5016393442622951,0.5008183306055647,0
0.5081967213114754,0.5106382978723404,0
0.5016393442622951,0.4959083469721768,0
0.5081967213114754,0.502454991816694,0
0.5081967213114754,0.5008183306055647,0
0.49836065573770494,0.4909983633387889,0
0.5081967213114754,0.5040916530278232,0
0.5049180327868853,0.4959083469721768,0
0.5016393442622951,0.49427168576104746,0
0.5081967213114754,0.5122749590834698,0
0.49836065573770494,0.49263502454991814,0
0.5081967213114754,0.502454991816694,0
0.5081967213114754,0.5057283142389526,0
0.5016393442622951,0.4909983633387889,0
0.5114754098360655,0.5008183306055647,0
0.5049180327868853,0.49918166939443537,0
0.5016393442622951,0.5008183306055647,0
0.5114754098360655,0.5122749590834698,0
0.5016393442622951,0.48936170212765956,0
0.5081967213114754,0.49754500818330605,0
0.5081967213114754,0.5057283142389526,0
0.5016393442622951,0.4877250409165303,0
0.5081967213114754,0.5057283142389526,0
0.5049180327868853,0.4959083469721768,0
0.5016393442622951,0.49754500818330605,0
0.5081967213114754,0.502454991816694,0
0.5049180327868853,0.5008183306055647,0
0.5049180327868853,0.502454991816694,0
0.5081967213114754,0.5008183306055647,0
0.5016393442622951,0.4959083469721768,0
0.5114754098360655,0.5090016366612111,0
0.5049180327868853,0.4959083469721768,0
0.5016393442622951,0.5040916530278232,0
0.5081967213114754,0.5155482815057283,0
0.5016393442622951,0.49754500818330605,0
0.5049180327868853,0.5040916530278232,0
0.5081967213114754,0.49754500818330605,0
0.5016393442622951,0.4909983633387889,0
0.5081967213114754,0.5008183306055647,0
0.5016393442622951,0.5008183306055647,0
0.5049180327868853,0.49754500818330605,0
0.5114754098360655,0.502454991816694,0
0.5049180327868853,0.5008183306055647,0
0.5049180327868853,0.5008183306055647,0
0.5081967213114754,0.5008183306055647,0
0.5016393442622951,0.49754500818330605,0
0.5081967213114754,0.5155482815057283,0
0.5016393442622951,0.5073649754500819,0
0.5016393442622951,0.49918166939443537,0
0.5081967213114754,0.5073649754500819,0
0.5049180327868853,0.49427168576104746,0
0.5049180327868853,0.5073649754500819,0
0.5049180327868853,0.502454991816694,0
0.5016393442622951,0.48936170212765956,0
0.5114754098360655,0.5106382978723404,0
0.5016393442622951,0.4959083469721768,0
0.5049180327868853,0.49754500818330605,0
0.5049180327868853,0.5106382978723404,0
0.5049180327868853,0.49918166939443537,0
0.5081967213114754,0.49918166939443537,0
0.5049180327868853,0.5057283142389526,0
0.5016393442622951,0.4844517184942717,0
0.5081967213114754,0.502454991816694,0
0.5016393442622951,0.49754500818330605,0
0.5049180327868853,0.49918166939443537,0
0.5081967213114754,0.5057283142389526,0
0.5049180327868853,0.4959083469721768,0
0.5081967213114754,0.5057283142389526,0
0.5081967213114754,0.5040916530278232,0
0.5016393442622951,0.486088379705401,0
0.5049180327868853,0.5090016366612111,0
0.5049180327868853,0.5040916530278232,0
0.5049180327868853,0.4959083469721768,0
0.5081967213114754,0.5008183306055647,0
0.5016393442622951,0.4959083469721768,0
0.5049180327868853,0.5057283142389526,0
0.5081967213114754,0.5090016366612111,0
0.49836065573770494,0.5040916530278232,0
0.5114754098360655,0.5073649754500819,0
0.5049180327868853,0.5008183306055647,0
0.5049180327868853,0.486088379705401,0
0.5016393442622951,0.502454991816694,0
0.5049180327868853,0.49754500818330605,0
0.5081967213114754,0.5090016366612111,0
0.5081967213114754,0.5008183306055647,0
0.5016393442622951,0.49263502454991814,0
0.5081967213114754,0.5106382978723404,0
0.5016393442622951,0.49427168576104746,0
0.5049180327868853,0.49263502454991814,0
0.5049180327868853,0.5090016366612111,0
0.5016393442622951,0.4877250409165303,0
0.5081967213114754,0.502454991816694,0
0.5049180327868853,0.5073649754500819,0
0.5016393442622951,0.48936170212765956,0
0.5081967213114754,0.5040916530278232,0
0.5016393442622951,0.502454991816694,0
0.5016393442622951,0.5008183306055647,0
0.5081967213114754,0.502454991816694,0
0.5016393442622951,0.49263502454991814,0
0.5049180327868853,0.5057283142389526,0
0.5049180327868853,0.49754500818330605,0
0.5016393442622951,0.4877250409165303,0
0.5081967213114754,0.5057283142389526,0
0.5049180327868853,0.49918166939443537,0
0.5049180327868853,0.48936170212765956,0
0.5081967213114754,0.5057283142389526,0
0.5016393442622951,0.5008183306055647,0
0.5049180327868853,0.49754500818330605,0
0.5049180327868853,0.5040916530278232,0
0.5049180327868853,0.48936170212765956,0
0.5049180327868853,0.5155482815057283,0
0.5016393442622951,0.5090016366612111,0
0.5049180327868853,0.4909983633387889,0
0.5081967213114754,0.5008183306055647,0
0.5016393442622951,0.49427168576104746,0
0.5081967213114754,0.5040916530278232,0
0.5081967213114754,0.5073649754500819,0
0.5016393442622951,0.4828150572831424,0
0.5049180327868853,0.502454991816694,0
0.5016393442622951,0.49263502454991814,0
0.5016393442622951,0.4909983633387889,0
0.5081967213114754,0.5057283142389526,0
0.5016393442622951,0.4909983633387889,0
0.5081967213114754,0.5040916530278232,0
0.5081967213114754,0.5040916530278232,0
0.5016393442622951,0.49263502454991814,0
0.5081967213114754,0.5073649754500819,0
0.5016393442622951,0.49754500818330605,0
0.5049180327868853,0.4959083469721768,0
0.5081967213114754,0.4959083469721768,0
0.5016393442622951,0.4877250409165303,0
0.5081967213114754,0.502454991816694,0
0.5049180327868853,0.5040916530278232,0
0.5016393442622951,0.48936170212765956,0
0.5114754098360655,0.5171849427168577,0
0.5049180327868853,0.49918166939443537,0
0.5049180327868853,0.4909983633387889,0
0.5049180327868853,0.49918166939443537,0
0.49836065573770494,0.49263502454991814,0
0.5081967213114754,0.5008183306055647,0
0.5049180327868853,0.502454991816694,0
0.5016393442622951,0.4959083469721768,0
0.5081967213114754,0.5090016366612111,0
0.5016393442622951,0.49918166939443537,0
0.5081967213114754,0.49754500818330605,0
0.5081967213114754,0.5008183306055647,0
0.5016393442622951,0.49918166939443537,0
0.5081967213114754,0.5008183306055647,0
0.5016393442622951,0.49918166939443537,0
0.5016393442622951,0.4909983633387889,0
0.5081967213114754,0.5040916530278232,0
0.5049180327868853,0.49918166939443537,0
0.5049180327868853,0.502454991816694,0
0.5049180327868853,0.5040916530278232,0
0.5016393442622951,0.49427168576104746,0
0.5049180327868853,0.5008183306055647,0
0.5049180327868853,0.4959083469721768,0
0.5016393442622951,0.49263502454991814,0
0.5081967213114754,0.5090016366612111,0
0.5081967213114754,0.502454991816694,0
0.5049180327868853,0.49918166939443537,0
0.5081967213114754,0.5040916530278232,0
0.5016393442622951,0.486088379705401,0
0.5114754098360655,0.5090016366612111,0
0.5049180327868853,0.5008183306055647,0
0.5016393442622951,0.4959083469721768,0
0.5081967213114754,0.5008183306055647,0
0.5049180327868853,0.49427168576104746,0
0.5016393442622951,0.5106382978723404,0
0.5049180327868853,0.5057283142389526,0
0.5016393442622951,0.48936170212765956,0
0.5081967213114754,0.5040916530278232,0
0.5049180327868853,0.49754500818330605,0
0.5049180327868853,0.49918166939443537,0
0.5081967213114754,0.4959083469721768,0
0.5049180327868853,0.49263502454991814,0
0.5049180327868853,0.49918166939443537,0
0.5081967213114754,0.5073649754500819,0
0.5049180327868853,0.4909983633387889,0
0.5081967213114754,0.502454991816694,0
0.5049180327868853,0.49754500818330605,0
0.5049180327868853,0.48936170212765956,0
0.5081967213114754,0.502454991816694,0
0.5016393442622951,0.502454991816694,0
0.5016393442622951,0.49263502454991814,0
0.5081967213114754,0.502454991816694,0
0.5049180327868853,0.4959083469721768,0
0.5081967213114754,0.4959083469721768,0
0.5049180327868853,0.49263502454991814,0
0.5016393442622951,0.5008183306055647,0
0.4786885245901639,0.5008183306055647,0
0.5147540983606558,0.5040916530278232,0
0.49508196721311476,0.5008183306055647,0
0.49836065573770494,0.5040916530278232,0
0.521311475409836,0.502454991816694,0
0.4852459016393443,0.5073649754500819,0
0.5049180327868853,0.502454991816694,0
0.49508196721311476,0.4909983633387889,0
0.4885245901639344,0.49918166939443537,0
0.4885245901639344,0.4909983633387889,0
0.5016393442622951,0.502454991816694,0
0.49836065573770494,0.49918166939443537,0
0.4918032786885246,0.4909983633387889,0
0.5049180327868853,0.5073649754500819,0
0.5049180327868853,0.5057283142389526,0
0.49508196721311476,0.49427168576104746,0
0.5016393442622951,0.5073649754500819,0
0.5016393442622951,0.502454991816694,0
0.5081967213114754,0.5057283142389526,0
0.5016393442622951,0.5057283142389526,0
0.49836065573770494,0.5008183306055647,0
0.5049180327868853,0.502454991816694,0
0.5049180327868853,0.5073649754500819,0
0.4918032786885246,0.4909983633387889,0
0.5049180327868853,0.5073649754500819,0
0.4918032786885246,0.49263502454991814,0
0.5049180327868853,0.5040916530278232,0
0.49508196721311476,0.49263502454991814,0
0.4918032786885246,0.49263502454991814,0
0.5147540983606558,0.513911620294599,0
0.49836065573770494,0.502454991816694,0
0.4918032786885246,0.49263502454991814,0
0.4918032786885246,0.4959083469721768,0
0.49508196721311476,0.49754500818330605,0
0.49508196721311476,0.4959083469721768,0
0.49836065573770494,0.5008183306055647,0
0.49836065573770494,0.4959083469721768,0
0.5049180327868853,0.5090016366612111,0
0.4918032786885246,0.49427168576104746,0
0.49836065573770494,0.5040916530278232,0
0.49836065573770494,0.502454991816694,0
0.49508196721311476,0.49754500818330605,0
0.5049180327868853,0.5073649754500819,0
0.49836065573770494,0.5008183306055647,0
0.49836065573770494,0.49918166939443537,0
0.5081967213114754,0.5106382978723404,0
0.49836065573770494,0.5008183306055647,0
0.49508196721311476,0.49754500818330605,0
0.49508196721311476,0.49918166939443537,0
0.4885245901639344,0.49263502454991814,0
0.5016393442622951,0.502454991816694,0
0.49508196721311476,0.49918166939443537,0
0.4852459016393443,0.486088379705401,0
0.5049180327868853,0.5073649754500819,0
0.4918032786885246,0.49427168576104746,0
0.49508196721311476,0.49263502454991814,0
0.5049180327868853,0.5057283142389526,0
0.49508196721311476,0.49918166939443537,0
0.49836065573770494,0.5008183306055647,0
0.49836065573770494,0.49754500818330605,0
0.4852459016393443,0.486088379705401,0
0.5114754098360655,0.5155482815057283,0
0.4885245901639344,0.48936170212765956,0
0.4885245901639344,0.4909983633387889,0
0.49508196721311476,0.4959083469721768,0
0.4852459016393443,0.486088379705401,0
0.5081967213114754,0.5073649754500819,0
0.5016393442622951,0.502454991816694,0
0.49508196721311476,0.4959083469721768,0
0.5081967213114754,0.5090016366612111,0
0.49508196721311476,0.49918166939443537,0
0.49508196721311476,0.4909983633387889,0
0.5081967213114754,0.5106382978723404,0
0.4918032786885246,0.48936170212765956,0
0.5081967213114754,0.5073649754500819,0
0.5049180327868853,0.502454991816694,0
0.4885245901639344,0.4909983633387889,0
0.5049180327868853,0.5090016366612111,0
0.49836065573770494,0.49754500818330605,0
0.5016393442622951,0.5008183306055647,0
0.5016393442622951,0.5040916530278232,0
0.4918032786885246,0.4959083469721768,0
0.49836065573770494,0.5008183306055647,0
0.5016393442622951,0.5040916530278232,0
0.4918032786885246,0.4959083469721768,0
0.5081967213114754,0.5090016366612111,0
0.4885245901639344,0.4909983633387889,0
0.5016393442622951,0.5040916530278232,0
0.5016393442622951,0.5040916530278232,0
0.4918032786885246,0.4959083469721768,0
0.5081967213114754,0.5090016366612111,0
0.49508196721311476,0.49754500818330605,0
0.4885245901639344,0.4877250409165303,0
0.5049180327868853,0.5057283142389526,0
0.49836065573770494,0.49918166939443537,0
0.49836065573770494,0.49918166939443537,0
0.5081967213114754,0.5122749590834698,0
0.49508196721311476,0.4959083469721768,0
0.5016393442622951,0.5008183306055647,0
0.5016393442622951,0.5008183306055647,0
0.4918032786885246,0.49427168576104746,0
0.5049180327868853,0.5040916530278232,0
0.49508196721311476,0.49918166939443537,0
0.49508196721311476,0.49754500818330605,0
0.5016393442622951,0.5008183306055647,0
0.4885245901639344,0.48936170212765956,0
0.5147540983606558,0.513911620294599,0
0.5016393442622951,0.5040916530278232,0
0.4918032786885246,0.49427168576104746,0
0.5049180327868853,0.5073649754500819,0
0.49836065573770494,0.49918166939443537,0
0.49508196721311476,0.49918166939443537,0
0.5049180327868853,0.5057283142389526,0
0.4918032786885246,0.4959083469721768,0
0.5049180327868853,0.5090016366612111,0
0.5016393442622951,0.5040916530278232,0
0.49836065573770494,0.49918166939443537,0
0.5049180327868853,0.5040916530278232,0
0.4885245901639344,0.49427168576104746,0
0.5016393442622951,0.502454991816694,0
0.5049180327868853,0.5040916530278232,0
0.4885245901639344,0.49263502454991814,0
0.5081967213114754,0.502454991816694,0
0.49508196721311476,0.49754500818330605,0
0.4852459016393443,0.48936170212765956,0
0.5016393442622951,0.502454991816694,0
0.49508196721311476,0.49918166939443537,0
0.5016393442622951,0.5040916530278232,0
0.5016393442622951,0.5057283142389526,0
0.4885245901639344,0.4909983633387889,0
0.5016393442622951,0.5040916530278232,0
0.49508196721311476,0.4959083469721768,0
0.4918032786885246,0.48936170212765956,0
0.5049180327868853,0.5106382978723404,0
0.4918032786885246,0.4959083469721768,0
0.5016393442622951,0.502454991816694,0
0.5016393442622951,0.5040916530278232,0
0.4918032786885246,0.4909983633387889,0
0.5114754098360655,0.513911620294599,0
0.4852459016393443,0.48936170212765956,0
0.4918032786885246,0.4909983633387889,0
0.5081967213114754,0.5106382978723404,0
0.49508196721311476,0.49918166939443537,0
0.49836065573770494,0.49754500818330605,0
0.49508196721311476,0.49918166939443537,0
0.4918032786885246,0.4959083469721768,0
0.5016393442622951,0.502454991816694,0
0.5016393442622951,0.502454991816694,0
0.4885245901639344,0.48936170212765956,0
0.5016393442622951,0.502454991816694,0
0.4918032786885246,0.4909983633387889,0
0.49836065573770494,0.49918166939443537,0
0.5049180327868853,0.5057283142389526,0
0.4918032786885246,0.49427168576104746,0
0.5081967213114754,0.5106382978723404,0
0.49836065573770494,0.502454991816694,0
0.49836065573770494,0.49754500818330605,0
0.49836065573770494,0.5008183306055647,0
0.4918032786885246,0.4959083469721768,0
0.49836065573770494,0.49754500818330605,0
0.49836065573770494,0.5008183306055647,1
0.4918032786885246,0.48936170212765956,1
0.5049180327868853,0.5073649754500819,1
0.5049180327868853,0.49918166939443537,1
0.4885245901639344,0.48936170212765956,1
0.5081967213114754,0.5073649754500819,1
0.4918032786885246,0.49427168576104746,1
0.5049180327868853,0.5057283142389526,1
0.5049180327868853,0.5073649754500819,1
0.4885245901639344,0.4877250409165303,1
0.5081967213114754,0.5057283142389526,1
0.49836065573770494,0.49754500818330605,1
0.49508196721311476,0.49263502454991814,1
0.5049180327868853,0.5057283142389526,1
0.49836065573770494,0.49754500818330605,1
0.5016393442622951,0.5008183306055647,1
0.49836065573770494,0.49918166939443537,1
0.49508196721311476,0.49754500818330605,1
0.5114754098360655,0.5155482815057283,1
0.49508196721311476,0.49427168576104746,1
0.49508196721311476,0.4959083469721768,1
0.5049180327868853,0.5057283142389526,1
0.49508196721311476,0.4959083469721768,1
0.5049180327868853,0.5040916530278232,1
0.5016393442622951,0.502454991816694,1
0.4885245901639344,0.4877250409165303,1
0.5081967213114754,0.5106382978723404,1
0.49508196721311476,0.4959083469721768,1
0.49836065573770494,0.49754500818330605,1
0.5081967213114754,0.5073649754500819,1
0.4918032786885246,0.49427168576104746,1
0.49836065573770494,0.5008183306055647,1
0.5049180327868853,0.5090016366612111,1
0.4918032786885246,0.49263502454991814,1
0.5114754098360655,0.5106382978723404,1
0.49508196721311476,0.4959083469721768,1
0.4918032786885246,0.4909983633387889,1
0.5016393442622951,0.502454991816694,1
0.49508196721311476,0.49427168576104746,1
0.49836065573770494,0.49918166939443537,1
0.5016393442622951,0.5040916530278232,1
0.4918032786885246,0.49263502454991814,1
0.5081967213114754,0.5090016366612111,1
0.49836065573770494,0.4959083469721768,1
0.5049180327868853,0.5040916530278232,1
0.5114754098360655,0.513911620294599,1
0.49836065573770494,0.49754500818330605,1
0.5081967213114754,0.5090016366612111,1
0.5016393442622951,0.5040916530278232,1
0.49508196721311476,0.49754500818330605,1
0.5147540983606558,0.5106382978723404,1
0.4918032786885246,0.4909983633387889,1
0.49836065573770494,0.49918166939443537,1
0.5049180327868853,0.5057283142389526,1
0.49508196721311476,0.49918166939443537,1
0.49508196721311476,0.4959083469721768,1
0.49508196721311476,0.5008183306055647,1
0.4918032786885246,0.4959083469721768,1
0.49836065573770494,0.5008183306055647,1
0.5016393442622951,0.5040916530278232,1
0.49508196721311476,0.4959083469721768,1
0.49836065573770494,0.5008183306055647,1
0.49508196721311476,0.502454991816694,1
0.5016393442622951,0.5057283142389526,1
0.49836065573770494,0.502454991816694,1
0.4885245901639344,0.4909983633387889,1
0.5049180327868853,0.5040916530278232,1
0.49508196721311476,0.4959083469721768,1
0.49508196721311476,0.49754500818330605,1
0.5016393442622951,0.5057283142389526,1
0.4885245901639344,0.49263502454991814,1
0.49508196721311476,0.49754500818330605,1
0.5016393442622951,0.502454991816694,1
0.4918032786885246,0.49754500818330605,1
0.5114754098360655,0.5155482815057283,1
0.5049180327868853,0.5073649754500819,1
0.49508196721311476,0.49918166939443537,1
0.5016393442622951,0.5040916530278232,1
0.4852459016393443,0.4909983633387889,1
0.5114754098360655,0.5106382978723404,1
0.4918032786885246,0.4959083469721768,1
0.49508196721311476,0.4959083469721768,1
0.5081967213114754,0.5122749590834698,1
0.49508196721311476,0.49754500818330605,1
0.49836065573770494,0.5008183306055647,1
0.49836065573770494,0.49918166939443537,1
0.4918032786885246,0.49427168576104746,1
0.5049180327868853,0.5073649754500819,1
0.5049180327868853,0.5057283142389526,1
0.49508196721311476,0.49918166939443537,1
0.5081967213114754,0.5106382978723404,1
0.5016393442622951,0.502454991816694,1
0.4918032786885246,0.4909983633387889,1
0.49836065573770494,0.5008183306055647,1
0.49508196721311476,0.4959083469721768,1
0.5016393442622951,0.5040916530278232,1
0.49508196721311476,0.49918166939443537,1
0.4918032786885246,0.49263502454991814,1
0.5016393442622951,0.5057283142389526,1
0.4918032786885246,0.49427168576104746,1
0.49836065573770494,0.49754500818330605,1
0.5081967213114754,0.5073649754500819,1
0.4852459016393443,0.48936170212765956,1
0.49836065573770494,0.5008183306055647,1
0.5016393442622951,0.502454991816694,1
0.49508196721311476,0.4959083469721768,1
0.5081967213114754,0.5090016366612111,1
0.49836065573770494,0.49754500818330605,1
0.5016393442622951,0.5008183306055647,1
0.5049180327868853,0.5057283142389526,1
0.4852459016393443,0.48936170212765956,1
0.5049180327868853,0.5073649754500819,1
0.5016393442622951,0.502454991816694,1
0.49508196721311476,0.49918166939443537,1
0.5114754098360655,0.5155482815057283,1
0.5016393442622951,0.5008183306055647,1
0.4918032786885246,0.49427168576104746,1
0.49836065573770494,0.49754500818330605,1
0.4852459016393443,0.4909983633387889,1
0.5016393442622951,0.5040916530278232,1
0.5016393442622951,0.5040916530278232,1
0.49836065573770494,0.49918166939443537,1
0.5049180327868853,0.5090016366612111,1
0.4885245901639344,0.4877250409165303,1
0.5016393442622951,0.502454991816694,1
0.5016393442622951,0.5057283142389526,1
0.4885245901639344,0.48936170212765956,1
0.5016393442622951,0.502454991816694,1
0.4918032786885246,0.49263502454991814,1
0.49836065573770494,0.49918166939443537,1
0.49836065573770494,0.502454991816694,1
0.49508196721311476,0.49754500818330605,1
0.5049180327868853,0.5073649754500819,1
0.5016393442622951,0.5057283142389526,1
0.49508196721311476,0.4959083469721768,1
0.5081967213114754,0.5090016366612111,1
0.5016393442622951,0.5040916530278232,1
0.4918032786885246,0.49263502454991814,1
0.5016393442622951,0.5040916530278232,1
0.4885245901639344,0.4909983633387889,1
0.5081967213114754,0.5073649754500819,1
0.5049180327868853,0.5040916530278232,1
0.49508196721311476,0.49754500818330605,1
0.49836065573770494,0.502454991816694,1
0.49836065573770494,0.5008183306055647,1
0.4918032786885246,0.48936170212765956,1
0.5049180327868853,0.5073649754500819,1
0.49508196721311476,0.49754500818330605,1
0.4918032786885246,0.49263502454991814,1
0.5081967213114754,0.5073649754500819,1
0.4852459016393443,0.48936170212765956,1
0.5147540983606558,0.513911620294599,1
0.5049180327868853,0.5073649754500819,1
0.4918032786885246,0.49263502454991814,1
0.5016393442622951,0.502454991816694,1
0.4918032786885246,0.49427168576104746,1
0.49836065573770494,0.5008183306055647,1
0.49836065573770494,0.49754500818330605,1
0.4918032786885246,0.49427168576104746,1
0.5049180327868853,0.5073649754500819,1
0.49508196721311476,0.49427168576104746,1
0.5016393442622951,0.49918166939443537,1
0.49836065573770494,0.5008183306055647,1
0.49836065573770494,0.502454991816694,1
0.5016393442622951,0.502454991816694,1
0.5049180327868853,0.5073649754500819,1
0.4852459016393443,0.486088379705401,1
0.5049180327868853,0.5073649754500819,1
0.49508196721311476,0.49754500818330605,1
0.49836065573770494,0.502454991816694,1
0.49836065573770494,0.49918166939443537,1
0.4918032786885246,0.4909983633387889,1
0.5049180327868853,0.5090016366612111,1
0.49508196721311476,0.4959083469721768,1
0.4918032786885246,0.48936170212765956,1
0.5016393442622951,0.5040916530278232,1
0.49508196721311476,0.4959083469721768,1
0.49508196721311476,0.4959083469721768,1
0.5114754098360655,0.5122749590834698,1
0.4852459016393443,0.486088379705401,1
0.5081967213114754,0.5090016366612111,1
0.5049180327868853,0.5090016366612111,1
0.4885245901639344,0.48936170212765956,1
0.5081967213114754,0.5122749590834698,1
0.49836065573770494,0.49754500818330605,1
0.4885245901639344,0.4909983633387889,1
0.5114754098360655,0.5106382978723404,1
0.4918032786885246,0.4909983633387889,1
0.49508196721311476,0.4959083469721768,1
0.5016393442622951,0.502454991816694,1
0.4885245901639344,0.4909983633387889,1
0.5081967213114754,0.5090016366612111,1
0.49836065573770494,0.5008183306055647,1
0.4918032786885246,0.49427168576104746,1
0.49508196721311476,0.49918166939443537,1
0.5049180327868853,0.5040916530278232,1
0.5016393442622951,0.4959083469721768,1
0.5081967213114754,0.5090016366612111,1
0.4852459016393443,0.4828150572831424,1
0.5049180327868853,0.5073649754500819,1
0.5016393442622951,0.5040916530278232,1
0.5016393442622951,0.502454991816694,1
0.49508196721311476,0.4959083469721768,1
0.4885245901639344,0.49263502454991814,1
0.49836065573770494,0.5008183306055647,1
0.5016393442622951,0.5040916530278232,1
0.4918032786885246,0.49427168576104746,1
0.5049180327868853,0.5090016366612111,1
0.49508196721311476,0.4959083469721768,1
0.49508196721311476,0.49918166939443537,1
0.5147540983606558,0.5171849427168577,1
0.4918032786885246,0.4959083469721768,1
0.5049180327868853,0.5040916530278232,1
0.4918032786885246,0.49754500818330605,1
0.4918032786885246,0.49263502454991814,1
0.5114754098360655,0.5090016366612111,1
0.49508196721311476,0.49918166939443537,1
0.49508196721311476,0.4959083469721768,1
0.5016393442622951,0.502454991816694,1
0.4918032786885246,0.49427168576104746,1
0.5016393442622951,0.5008183306055647,1
0.5049180327868853,0.5057283142389526,1
0.4918032786885246,0.49263502454991814,1
0.5016393442622951,0.49918166939443537,1
0.49508196721311476,0.49918166939443537,1
0.49508196721311476,0.4959083469721768,1
0.5081967213114754,0.5090016366612111,1
0.4885245901639344,0.49427168576104746,1
0.5016393442622951,0.5040916530278232,1
0.49836065573770494,0.5008183306055647,1
0.4885245901639344,0.48936170212765956,1
0.5049180327868853,0.5073649754500819,1
0.5016393442622951,0.5008183306055647,1
0.49836065573770494,0.5008183306055647,1
0.5016393442622951,0.5057283142389526,1
0.49508196721311476,0.4959083469721768,1
0.5049180327868853,0.5073649754500819,1
0.49836065573770494,0.5008183306055647,1
0.49836065573770494,0.4959083469721768,1
0.49836065573770494,0.5008183306055647,1
0.4918032786885246,0.49427168576104746,1
0.5016393442622951,0.502454991816694,1
0.49836065573770494,0.49918166939443537,1
0.49836065573770494,0.49754500818330605,1
0.5081967213114754,0.5090016366612111,1
0.4852459016393443,0.48936170212765956,1
0.49508196721311476,0.49427168576104746,1
0.5114754098360655,0.5090016366612111,1
0.5016393442622951,0.502454991816694,1
0.49836065573770494,0.49754500818330605,1
0.5016393442622951,0.5008183306055647,1
0.4918032786885246,0.49263502454991814,1
0.49836065573770494,0.5008183306055647,1
0.49836065573770494,0.502454991816694,1
0.4918032786885246,0.48936170212765956,1
0.5147540983606558,0.5171849427168577,1
0.4918032786885246,0.4959083469721768,1
0.49508196721311476,0.49754500818330605,1
0.5016393442622951,0.5008183306055647,1
0.4852459016393443,0.49263502454991814,1
0.49836065573770494,0.5008183306055647,1
0.49836065573770494,0.5008183306055647,1
0.49508196721311476,0.49754500818330605,1
0.5049180327868853,0.5090016366612111,1
0.49836065573770494,0.5008183306055647,1
0.49836065573770494,0.502454991816694,1
0.49836065573770494,0.49918166939443537,1
0.4918032786885246,0.49754500818330605,1
0.5049180327868853,0.5073649754500819,1
0.5016393442622951,0.502454991816694,1
0.4852459016393443,0.48936170212765956,1
0.5049180327868853,0.5090016366612111,1
0.49836065573770494,0.49918166939443537,1
0.49836065573770494,0.49754500818330605,1
0.5049180327868853,0.5073649754500819,1
0.4918032786885246,0.49427168576104746,1
0.49836065573770494,0.5008183306055647,1
0.49836065573770494,0.5040916530278232,1
0.49508196721311476,0.4959083469721768,1
0.5114754098360655,0.5106382978723404,1
0.49836065573770494,0.5008183306055647,1
0.5049180327868853,0.502454991816694,1
0.5016393442622951,0.5008183306055647,1
0.49836065573770494,0.5008183306055647,1
0.5081967213114754,0.5106382978723404,1
0.5114754098360655,0.5155482815057283,1
0.4885245901639344,0.48936170212765956,1
0.5016393442622951,0.5040916530278232,1
0.4918032786885246,0.49263502454991814,1
0.4918032786885246,0.4909983633387889,1
0.5049180327868853,0.5073649754500819,1
0.49508196721311476,0.49427168576104746,1
0.5147540983606558,0.5171849427168577,1
0.49836065573770494,0.5008183306055647,1
0.49836065573770494,0.5008183306055647,1
0.5081967213114754,0.5073649754500819,1
0.4918032786885246,0.49263502454991814,1
0.4918032786885246,0.49263502454991814,1
0.5081967213114754,0.513911620294599,1
0.4885245901639344,0.486088379705401,1
0.49836065573770494,0.49918166939443537,1
0.49508196721311476,0.49918166939443537,1
0.4852459016393443,0.486088379705401,1
0.5147540983606558,0.5171849427168577,1
0.49508196721311476,0.4959083469721768,1
0.5016393442622951,0.5040916530278232,1
0.5016393442622951,0.502454991816694,1
0.4852459016393443,0.4909983633387889,1
0.5049180327868853,0.5057283142389526,1
0.49836065573770494,0.49918166939443537,1
0.49508196721311476,0.5008183306055647,1
0.49508196721311476,0.49918166939443537,1
0.4918032786885246,0.49427168576104746,1
0.49836065573770494,0.49754500818330605,1
0.49508196721311476,0.49918166939443537,1
0.4918032786885246,0.4959083469721768,1
0.5081967213114754,0.5073649754500819,1
0.49508196721311476,0.49918166939443537,1
0.4852459016393443,0.4877250409165303,1
0.5016393442622951,0.5057283142389526,1
0.5016393442622951,0.5057283142389526,1
0.49836065573770494,0.49754500818330605,1
0.5049180327868853,0.5040916530278232,1
0.49508196721311476,0.4959083469721768,1
0.49836065573770494,0.502454991816694,1
0.49836065573770494,0.5008183306055647,1
0.4852459016393443,0.486088379705401,1
0.49508196721311476,0.49918166939443537,1
0.4885245901639344,0.49263502454991814,1
0.49508196721311476,0.49754500818330605,1
0.49508196721311476,0.49918166939443537,1
0.4885245901639344,0.48936170212765956,1
0.5049180327868853,0.5057283142389526,1
0.49508196721311476,0.49754500818330605,1
0.4918032786885246,0.49427168576104746,1
0.5016393442622951,0.5040916530278232,1
0.49836065573770494,0.5008183306055647,1
0.49836065573770494,0.49918166939443537,1
0.49836065573770494,0.5040916530278232,1
0.4918032786885246,0.49263502454991814,1
0.49836065573770494,0.49754500818330605,1
0.49508196721311476,0.49918166939443537,1
0.49508196721311476,0.4959083469721768,1
0.49836065573770494,0.5008183306055647,1
0.49508196721311476,0.4959083469721768,1
0.49836065573770494,0.5008183306055647,1
0.49508196721311476,0.4959083469721768,1
0.49508196721311476,0.49427168576104746,1
0.5081967213114754,0.5073649754500819,1
0.5016393442622951,0.5040916530278232,1
0.49508196721311476,0.49754500818330605,1
0.5049180327868853,0.5057283142389526,1
0.4918032786885246,0.49427168576104746,1
0.49836065573770494,0.49754500818330605,1
0.49508196721311476,0.4959083469721768,1
0.4885245901639344,0.4909983633387889,1
0.5049180327868853,0.5090016366612111,1
0.4918032786885246,0.49427168576104746,1
0.4819672131147541,0.4844517184942717,1
0.5049180327868853,0.5073649754500819,1
0.5016393442622951,0.5073649754500819,1
0.5049180327868853,0.5040916530278232,1
0.49836065573770494,0.502454991816694,1
0.4885245901639344,0.48936170212765956,1
0.5081967213114754,0.5090016366612111,1
0.49836065573770494,0.49754500818330605,1
0.49508196721311476,0.4959083469721768,1
0.5049180327868853,0.5073649754500819,1
0.4885245901639344,0.4877250409165303,1
0.49508196721311476,0.5008183306055647,1
0.49836065573770494,0.4959083469721768,1
0.4918032786885246,0.4909983633387889,1
0.5081967213114754,0.5106382978723404,1
0.4885245901639344,0.4909983633387889,1
0.49836065573770494,0.5008183306055647,1
0.49836065573770494,0.5040916530278232,1
0.4918032786885246,0.49427168576104746,1
0.5081967213114754,0.5106382978723404,1
0.49836065573770494,0.502454991816694,1
0.49836065573770494,0.4959083469721768,1
0.49836065573770494,0.502454991816694,1
0.5016393442622951,0.5040916530278232,1
0.5016393442622951,0.5008183306055647,1
0.49508196721311476,0.49754500818330605,1
0.4852459016393443,0.4909983633387889,1
0.5081967213114754,0.5073649754500819,1
0.49836065573770494,0.5008183306055647,1
0.4885245901639344,0.4909983633387889,1
0.5114754098360655,0.5106382978723404,1
0.4885245901639344,0.4909983633387889,1
0.49836065573770494,0.4959083469721768,1
0.5114754098360655,0.5122749590834698,1
0.4885245901639344,0.48936170212765956,1
0.5016393442622951,0.5057283142389526,1
0.49836065573770494,0.49754500818330605,1
0.4885245901639344,0.48936170212765956,1
0.5049180327868853,0.5106382978723404,1
0.5049180327868853,0.5040916530278232,1
0.5049180327868853,0.5057283142389526,1
0.5049180327868853,0.5073649754500819,1
0.4918032786885246,0.4877250409165303,1
0.5049180327868853,0.5040916530278232,1
0.5081967213114754,0.5106382978723404,1
0.49508196721311476,0.49754500818330605,1
0.49836065573770494,0.5008183306055647,1
0.4885245901639344,0.49263502454991814,1
0.5016393442622951,0.49918166939443537,1
0.5049180327868853,0.5073649754500819,1
0.4819672131147541,0.486088379705401,1
0.5081967213114754,0.5057283142389526,1
0.4918032786885246,0.49754500818330605,1
0.4918032786885246,0.49427168576104746,1
0.5049180327868853,0.5106382978723404,1
0.49508196721311476,0.4959083469721768,1
0.4918032786885246,0.49263502454991814,1
0.5016393442622951,0.502454991816694,1
0.4885245901639344,0.49427168576104746,1
0.49836065573770494,0.49754500818330605,1
0.5016393442622951,0.5073649754500819,1
0.5049180327868853,0.49918166939443537,1
0.4852459016393443,0.49754500818330605,1
0.4852459016393443,0.48936170212765956,1
0.4852459016393443,0.48936170212765956,1
0.49508196721311476,0.5040916530278232,1
0.4786885245901639,0.4844517184942717,1
0.4885245901639344,0.49918166939443537,1
0.5081967213114754,0.5040916530278232,1
0.47540983606557374,0.4909983633387889,1
0.49836065573770494,0.502454991816694,1
0.5377049180327869,0.5237315875613748,1
0.5081967213114754,0.5057283142389526,1
0.46557377049180326,0.486088379705401,1
0.46229508196721314,0.4828150572831424,1
0.5180327868852459,0.5122749590834698,1
0.5147540983606558,0.5040916530278232,1
0.4918032786885246,0.49754500818330605,1
0.4819672131147541,0.49263502454991814,1
0.4819672131147541,0.4877250409165303,1
0.47540983606557374,0.4844517184942717,1
0.4557377049180328,0.4795417348608838,1
0.5114754098360655,0.49918166939443537,1
0.5180327868852459,0.513911620294599,1
0.4819672131147541,0.4909983633387889,1
0.46229508196721314,0.4828150572831424,1
0.5344262295081967,0.5204582651391162,1
0.45901639344262296,0.4877250409165303,1
0.4885245901639344,0.49263502454991814,1
0.4819672131147541,0.4909983633387889,1
0.4819672131147541,0.4909983633387889,1
0.5049180327868853,0.5090016366612111,1
0.5278688524590164,0.5220949263502455,1
0.46885245901639344,0.4844517184942717,1
0.5081967213114754,0.5073649754500819,1
0.4721311475409836,0.4795417348608838,1
0.5049180327868853,0.5057283142389526,1
0.4852459016393443,0.4877250409165303,1
0.5081967213114754,0.5008183306055647,1
0.4885245901639344,0.5040916530278232,1
0.5114754098360655,0.5106382978723404,1
0.47540983606557374,0.4828150572831424,1
0.4918032786885246,0.502454991816694,1
0.4786885245901639,0.4877250409165303,1
0.4918032786885246,0.4959083469721768,1
0.4819672131147541,0.486088379705401,1
0.4786885245901639,0.48936170212765956,1
0.5016393442622951,0.5073649754500819,1
0.49508196721311476,0.502454991816694,1
0.5114754098360655,0.5040916530278232,1
0.4852459016393443,0.49427168576104746,1
0.4885245901639344,0.4959083469721768,1
0.49508196721311476,0.4959083469721768,1
0.5114754098360655,0.5073649754500819,1
0.5114754098360655,0.502454991816694,1
0.49836065573770494,0.502454991816694,1
0.4852459016393443,0.4909983633387889,1
0.47540983606557374,0.49263502454991814,1
0.5016393442622951,0.5090016366612111,1
0.4852459016393443,0.486088379705401,1
0.5081967213114754,0.49918166939443537,1
0.5114754098360655,0.5073649754500819,1
0.4852459016393443,0.48936170212765956,1
0.49508196721311476,0.5057283142389526,1
0.4885245901639344,0.4959083469721768,1
0.4885245901639344,0.4909983633387889,1
0.5016393442622951,0.5040916530278232,1
0.49836065573770494,0.5008183306055647,1
0.49836065573770494,0.49918166939443537,1
0.49508196721311476,0.49754500818330605,1
0.4885245901639344,0.48936170212765956,1
0.49836065573770494,0.5057283142389526,1
0.4918032786885246,0.5040916530278232,1
0.4819672131147541,0.4877250409165303,1
0.5081967213114754,0.5090016366612111,1
0.4918032786885246,0.49263502454991814,1
0.4918032786885246,0.5057283142389526,1
0.4918032786885246,0.49918166939443537,1
0.49508196721311476,0.5008183306055647,1
0.5180327868852459,0.5122749590834698,1
0.4852459016393443,0.49754500818330605,1
0.5016393442622951,0.49754500818330605,1
0.47540983606557374,0.49918166939443537,1
0.4852459016393443,0.49427168576104746,1
0.5016393442622951,0.49754500818330605,1
0.5081967213114754,0.5040916530278232,1
0.5049180327868853,0.5008183306055647,1
0.4786885245901639,0.49918166939443537,1
0.5114754098360655,0.5008183306055647,1
0.4918032786885246,0.49263502454991814,1
0.4819672131147541,0.4959083469721768,1
0.4918032786885246,0.49754500818330605,1
0.49508196721311476,0.4909983633387889,1
0.4721311475409836,0.49918166939443537,1
0.5114754098360655,0.5057283142389526,1
0.49508196721311476,0.49754500818330605,1
0.49836065573770494,0.502454991816694,1
0.4885245901639344,0.48936170212765956,1
0.5081967213114754,0.5040916530278232,1
0.49836065573770494,0.49918166939443537,1
0.5016393442622951,0.5057283142389526,1
0.49836065573770494,0.49918166939443537,1
0.4918032786885246,0.49263502454991814,1
0.5081967213114754,0.5057283142389526,1
0.49836065573770494,0.5008183306055647,1
0.4918032786885246,0.49263502454991814,1
0.5081967213114754,0.5106382978723404,1
0.4885245901639344,0.49754500818330605,1
0.5147540983606558,0.5155482815057283,1
0.49836065573770494,0.5008183306055647,1
0.5147540983606558,0.5040916530278232,1
0.5147540983606558,0.5073649754500819,1
0.5147540983606558,0.5106382978723404,1
0.49508196721311476,0.49427168576104746,1
0.4918032786885246,0.502454991816694,1
0.49508196721311476,0.49427168576104746,1
0.4786885245901639,0.49263502454991814,1
0.4885245901639344,0.49427168576104746,1
0.4918032786885246,0.48936170212765956,1
0.4918032786885246,0.49918166939443537,1
0.49836065573770494,0.5008183306055647,1
0.5049180327868853,0.5040916530278232,1
0.5016393442622951,0.5040916530278232,1
0.49836065573770494,0.49918166939443537,1
0.49508196721311476,0.5040916530278232,1
0.521311475409836,0.5122749590834698,1
0.49836065573770494,0.49263502454991814,1
0.4819672131147541,0.49427168576104746,1
0.5081967213114754,0.5040916530278232,1
0.5016393442622951,0.49427168576104746,1
0.5147540983606558,0.5040916530278232,1
0.5147540983606558,0.5008183306055647,1
0.49836065573770494,0.49918166939443537,1
0.4852459016393443,0.49754500818330605,1
0.5049180327868853,0.502454991816694,1
0.49508196721311476,0.5008183306055647,1
0.4918032786885246,0.5008183306055647,1
0.4885245901639344,0.4959083469721768,1
0.49508196721311476,0.5008183306055647,1
0.4786885245901639,0.4959083469721768,1
0.49508196721311476,0.49263502454991814,1
0.521311475409836,0.5090016366612111,1
0.47540983606557374,0.4877250409165303,1
0.5049180327868853,0.5106382978723404,1
0.49836065573770494,0.49918166939443537,1
0.4885245901639344,0.4959083469721768,1
0.5081967213114754,0.5090016366612111,1
0.4852459016393443,0.4909983633387889,1
0.5016393442622951,0.513911620294599,1
0.49508196721311476,0.49918166939443537,1
0.5081967213114754,0.49754500818330605,1
0.5016393442622951,0.5073649754500819,1
0.5147540983606558,0.502454991816694,1
0.4918032786885246,0.5008183306055647,1
0.49508196721311476,0.49754500818330605,1
0.4918032786885246,0.49918166939443537,1
0.5081967213114754,0.5057283142389526,1
0.49836065573770494,0.5008183306055647,1
0.5081967213114754,0.4959083469721768,1
0.4885245901639344,0.49754500818330605,1
0.4852459016393443,0.4909983633387889,1
0.4819672131147541,0.49754500818330605,1
0.4918032786885246,0.5040916530278232,1
0.4918032786885246,0.4959083469721768,1
0.46557377049180326,0.4877250409165303,1
0.5016393442622951,0.49754500818330605,1
0.521311475409836,0.5171849427168577,1
0.5016393442622951,0.5073649754500819,1
0.4918032786885246,0.49754500818330605,1
0.4918032786885246,0.49754500818330605,1
0.4852459016393443,0.49427168576104746,1
0.4786885245901639,0.48936170212765956,1
0.49508196721311476,0.49918166939443537,1
0.49508196721311476,0.49754500818330605,1
0.49836065573770494,0.49754500818330605,1
0.4918032786885246,0.502454991816694,1
0.5081967213114754,0.5106382978723404,1
0.5049180327868853,0.49754500818330605,1
0.49508196721311476,0.49918166939443537,1
0.4918032786885246,0.49263502454991814,1
0.49836065573770494,0.502454991816694,1
0.5049180327868853,0.5073649754500819,1
0.5049180327868853,0.5008183306055647,1
0.5147540983606558,0.5122749590834698,1
0.4852459016393443,0.4959083469721768,1
0.4721311475409836,0.4844517184942717,1
0.5147540983606558,0.5090016366612111,1
0.4918032786885246,0.48936170212765956,1
0.521311475409836,0.5057283142389526,1
0.5016393442622951,0.49918166939443537,1
0.4885245901639344,0.49427168576104746,1
0.49508196721311476,0.5057283142389526,1
0.49836065573770494,0.49918166939443537,1
0.49508196721311476,0.49918166939443537,1
0.49836065573770494,0.4959083469721768,1
0.4885245901639344,0.4909983633387889,1
0.4819672131147541,0.5008183306055647,1
0.5016393442622951,0.5008183306055647,1
0.49508196721311476,0.49427168576104746,1
0.49836065573770494,0.5057283142389526,1
0.4885245901639344,0.49263502454991814,1
0.4918032786885246,0.4959083469721768,1
0.5016393442622951,0.5040916530278232,1
0.4885245901639344,0.48936170212765956,1
0.5147540983606558,0.513911620294599,1
0.5016393442622951,0.502454991816694,1
0.4885245901639344,0.48936170212765956,1
0.4918032786885246,0.502454991816694,1
0.5016393442622951,0.4959083469721768,1
0.47540983606557374,0.4877250409165303,1
0.4786885245901639,0.48936170212765956,1
0.49836065573770494,0.49427168576104746,1
0.4852459016393443,0.4959083469721768,1
0.5016393442622951,0.502454991816694,1
0.5016393442622951,0.49918166939443537,1
0.5049180327868853,0.5106382978723404,1
0.5016393442622951,0.4959083469721768,1
0.49836065573770494,0.49918166939443537,1
0.5081967213114754,0.5106382978723404,1
0.4918032786885246,0.4909983633387889,1
0.5081967213114754,0.502454991816694,1
0.49836065573770494,0.5008183306055647,1
0.4885245901639344,0.4909983633387889,1
0.5016393442622951,0.502454991816694,1
0.49836065573770494,0.49918166939443537,1
0.5016393442622951,0.5040916530278232,1
0.4852459016393443,0.49427168576104746,1
0.4918032786885246,0.49754500818330605,1
0.49508196721311476,0.5040916530278232,1
0.5114754098360655,0.5106382978723404,1
0.4918032786885246,0.49918166939443537,1
0.5081967213114754,0.5106382978723404,1
0.4885245901639344,0.4959083469721768,1
0.5081967213114754,0.5057283142389526,1
0.5049180327868853,0.502454991816694,1
0.4852459016393443,0.4877250409165303,1
0.49836065573770494,0.502454991816694,1
0.5016393442622951,0.502454991816694,1
0.5016393442622951,0.502454991816694,1
0.49508196721311476,0.49918166939443537,1
0.4918032786885246,0.4909983633387889,1
0.5081967213114754,0.5090016366612111,1
0.5081967213114754,0.5057283142389526,1
0.5016393442622951,0.49427168576104746,1
0.5081967213114754,0.5040916530278232,1
0.49508196721311476,0.502454991816694,1
0.49508196721311476,0.49918166939443537,1
0.4885245901639344,0.5008183306055647,1
0.49836065573770494,0.4959083469721768,1
0.4885245901639344,0.49427168576104746,1
0.49836065573770494,0.502454991816694,1
0.4819672131147541,0.4877250409165303,1
0.49836065573770494,0.5073649754500819,1
0.5049180327868853,0.5008183306055647,1
0.4918032786885246,0.49263502454991814,1
0.4819672131147541,0.49918166939443537,1
0.5049180327868853,0.5008183306055647,1
0.49836065573770494,0.4959083469721768,1
0.49836065573770494,0.5073649754500819,1
0.49508196721311476,0.49918166939443537,1
0.4918032786885246,0.5073649754500819,1
0.49508196721311476,0.49918166939443537,1
0.49836065573770494,0.5057283142389526,1
0.4918032786885246,0.49918166939443537,1
0.4918032786885246,0.49263502454991814,1
0.4852459016393443,0.49754500818330605,1
0.49508196721311476,0.5008183306055647,1
0.5049180327868853,0.5057283142389526,1
0.5049180327868853,0.5040916530278232,1
0.49836065573770494,0.49754500818330605,1
0.49836065573770494,0.5040916530278232,1
0.5049180327868853,0.49918166939443537,1
0.4819672131147541,0.4877250409165303,1
0.5016393442622951,0.49918166939443537,1
0.5081967213114754,0.5073649754500819,1
0.5081967213114754,0.49754500818330605,1
0.5016393442622951,0.5040916530278232,1
0.4918032786885246,0.49427168576104746,1
0.4918032786885246,0.49754500818330605,1
0.49836065573770494,0.5008183306055647,1
0.4918032786885246,0.4959083469721768,1
0.4918032786885246,0.49918166939443537,1
0.5049180327868853,0.5057283142389526,1
0.5114754098360655,0.49754500818330605,1
0.5016393442622951,0.502454991816694,1
0.5016393442622951,0.502454991816694,1
0.4918032786885246,0.49427168576104746,1
0.5016393442622951,0.5040916530278232,1
0.4885245901639344,0.49427168576104746,1
0.5016393442622951,0.49918166939443537,1
0.5180327868852459,0.5073649754500819,1
0.49508196721311476,0.49427168576104746,1
0.5049180327868853,0.5073649754500819,1
0.4885245901639344,0.49754500818330605,1
0.49836065573770494,0.5008183306055647,1
0.49508196721311476,0.502454991816694,1
0.49508196721311476,0.49263502454991814,1
0.5081967213114754,0.5057283142389526,1
0.4918032786885246,0.49754500818330605,1
0.4885245901639344,0.4877250409165303,1
0.4918032786885246,0.49918166939443537,1
0.5016393442622951,0.49918166939443537,1
0.49836065573770494,0.49754500818330605,1
0.5081967213114754,0.5057283142389526,1
0.49508196721311476,0.49263502454991814,1
0.49836065573770494,0.5008183306055647,1
0.49508196721311476,0.5008183306055647,1
0.49508196721311476,0.49263502454991814,1
0.49508196721311476,0.5040916530278232,1
0.5016393442622951,0.5008183306055647,1
0.49836065573770494,0.49427168576104746,1
0.5114754098360655,0.5057283142389526,1
0.4885245901639344,0.48936170212765956,1
0.49508196721311476,0.49918166939443537,1
0.49836065573770494,0.49754500818330605,1
0.49836065573770494,0.49263502454991814,1
0.5049180327868853,0.5040916530278232,1
0.5016393442622951,0.49918166939443537,1
0.4885245901639344,0.4959083469721768,1
0.49836065573770494,0.5008183306055647,1
0.5016393442622951,0.5008183306055647,1
0.49508196721311476,0.502454991816694,1
0.49836065573770494,0.502454991816694,1
0.5016393442622951,0.4959083469721768,1
0.49836065573770494,0.5057283142389526,1
0.5147540983606558,0.5073649754500819,1
0.49508196721311476,0.502454991816694,1
0.5180327868852459,0.5122749590834698,1
0.4852459016393443,0.4909983633387889,1
0.49836065573770494,0.502454991816694,1
0.4885245901639344,0.49918166939443537,1
0.4918032786885246,0.49427168576104746,1
0.4918032786885246,0.4959083469721768,1
0.4918032786885246,0.502454991816694,1
0.4885245901639344,0.49263502454991814,1
0.4852459016393443,0.49427168576104746,1
0.4819672131147541,0.48936170212765956,1
0.5016393442622951,0.502454991816694,1
0.5114754098360655,0.5073649754500819,1
0.5049180327868853,0.49918166939443537,1
0.49836065573770494,0.5040916530278232,1
0.5016393442622951,0.49918166939443537,1
0.49836065573770494,0.502454991816694,1
0.5114754098360655,0.502454991816694,1
0.4819672131147541,0.486088379705401,1
0.5016393442622951,0.5057283142389526,1
0.4885245901639344,0.4877250409165303,1
0.4885245901639344,0.4909983633387889,1
0.5081967213114754,0.5073649754500819,1
0.4885245901639344,0.49427168576104746,1
0.5081967213114754,0.5008183306055647,1
0.4918032786885246,0.49754500818330605,1
0.4819672131147541,0.4877250409165303,1
0.49508196721311476,0.49918166939443537,1
0.49508196721311476,0.5008183306055647,1
0.4918032786885246,0.4959083469721768,1
0.4852459016393443,0.48936170212765956,1
0.5016393442622951,0.502454991816694,1
0.5016393442622951,0.502454991816694,1
0.521311475409836,0.513911620294599,1
0.4852459016393443,0.4877250409165303,1
0.49836065573770494,0.5073649754500819,1
0.49508196721311476,0.49918166939443537,1
0.4918032786885246,0.49427168576104746,1
0.4918032786885246,0.4959083469721768,1
0.4885245901639344,0.4909983633387889,1
0.4885245901639344,0.4959083469721768,1
0.5114754098360655,0.5090016366612111,1
0.4918032786885246,0.49263502454991814,1
0.49836065573770494,0.5073649754500819,1
0.5147540983606558,0.5073649754500819,1
0.4852459016393443,0.4909983633387889,1
0.4918032786885246,0.49754500818330605,1
0.4885245901639344,0.49754500818330605,1
0.4885245901639344,0.49263502454991814,1
0.5049180327868853,0.5040916530278232,1
0.49836065573770494,0.49754500818330605,1
0.5016393442622951,0.5057283142389526,1
0.5049180327868853,0.502454991816694,1
0.5081967213114754,0.5008183306055647,1
0.5049180327868853,0.5106382978723404,1
0.49508196721311476,0.49263502454991814,1
0.5081967213114754,0.5073649754500819,1
0.5016393442622951,0.5040916530278232,1
0.49836065573770494,0.49263502454991814,1
0.5081967213114754,0.5057283142389526,1
0.49836065573770494,0.49754500818330605,1
0.5016393442622951,0.49427168576104746,1
0.4885245901639344,0.4959083469721768,1
0.5016393442622951,0.49754500818330605,1
0.49836065573770494,0.5008183306055647,1
0.5049180327868853,0.5040916530278232,1
0.5147540983606558,0.49918166939443537,1
0.49508196721311476,0.5040916530278232,1
0.49836065573770494,0.5008183306055647,1
0.4852459016393443,0.49754500818330605,1
0.49508196721311476,0.5040916530278232,1
0.49836065573770494,0.502454991816694,1
0.49508196721311476,0.5008183306055647,1
0.5049180327868853,0.5040916530278232,1
0.4852459016393443,0.4877250409165303,1
0.5016393442622951,0.5073649754500819,1
0.49836065573770494,0.5040916530278232,1
0.4918032786885246,0.4959083469721768,1
0.4885245901639344,0.5040916530278232,1
0.4918032786885246,0.49427168576104746,1
0.4918032786885246,0.4959083469721768,1
0.49836065573770494,0.5040916530278232,1
0.5147540983606558,0.5040916530278232,1
0.49836065573770494,0.5008183306055647,1
0.49836065573770494,0.5040916530278232,1
0.49836065573770494,0.49918166939443537,1
0.5114754098360655,0.5073649754500819,1
0.4918032786885246,0.49263502454991814,1
0.49508196721311476,0.49918166939443537,1
0.5081967213114754,0.5057283142389526,1
0.4852459016393443,0.49427168576104746,1
0.49508196721311476,0.4959083469721768,1
0.5016393442622951,0.502454991816694,1
0.49836065573770494,0.49918166939443537,1
0.5016393442622951,0.5008183306055647,1
0.49836065573770494,0.49754500818330605,1
0.5016393442622951,0.49918166939443537,1
0.49836065573770494,0.49754500818330605,1
0.49508196721311476,0.4909983633387889,1
0.49508196721311476,0.5008183306055647,1
0.4885245901639344,0.49263502454991814,1
0.49836065573770494,0.49918166939443537,1
0.49508196721311476,0.49754500818330605,1
0.4918032786885246,0.49427168576104746,1
0.5147540983606558,0.513911620294599,1
0.49836065573770494,0.49918166939443537,1
0.5049180327868853,0.5008183306055647,1
0.4885245901639344,0.49754500818330605,1
0.49508196721311476,0.5008183306055647,1
0.49836065573770494,0.49754500818330605,1
0.5049180327868853,0.5040916530278232,1
0.4852459016393443,0.4909983633387889,1
0.49508196721311476,0.5040916530278232,1
0.5016393442622951,0.5040916530278232,1
0.4852459016393443,0.49427168576104746,1
0.5081967213114754,0.5106382978723404,1
0.49508196721311476,0.4959083469721768,1
0.5049180327868853,0.5040916530278232,1
0.5049180327868853,0.502454991816694,1
0.4918032786885246,0.49427168576104746,1
0.4918032786885246,0.49754500818330605,1
0.49508196721311476,0.5008183306055647,1
0.5049180327868853,0.5008183306055647,1
0.49836065573770494,0.5057283142389526,1
0.49508196721311476,0.4959083469721768,1
0.49508196721311476,0.5040916530278232,1
0.5114754098360655,0.5090016366612111,1
0.5016393442622951,0.49427168576104746,1
0.49836065573770494,0.5008183306055647,1
0.49508196721311476,0.49918166939443537,1
0.5016393442622951,0.4959083469721768,1
0.5180327868852459,0.5155482815057283,1
0.5114754098360655,0.5057283142389526,1
0.5049180327868853,0.5090016366612111,1
0.4918032786885246,0.49754500818330605,1
0.4786885245901639,0.4844517184942717,1
0.5114754098360655,0.5073649754500819,1
0.5180327868852459,0.5090016366612111,1
0.5311475409836065,0.5057283142389526,1
0.4918032786885246,0.4959083469721768,1
0.4885245901639344,0.49427168576104746,1
0.5016393442622951,0.49918166939443537,1
0.49508196721311476,0.5008183306055647,1
0.4852459016393443,0.49263502454991814,1
0.5016393442622951,0.5040916530278232,1
0.4918032786885246,0.4959083469721768,1
0.4852459016393443,0.4877250409165303,1
0.4918032786885246,0.49754500818330605,1
0.5081967213114754,0.5040916530278232,1
0.4918032786885246,0.49754500818330605,1
0.49836065573770494,0.502454991816694,1
0.4852459016393443,0.48936170212765956,1
0.49508196721311476,0.5040916530278232,1
0.4852459016393443,0.4959083469721768,1
0.49836065573770494,0.4959083469721768,1
0.49836065573770494,0.5040916530278232,1
0.49836065573770494,0.5008183306055647,1
0.49836065573770494,0.49918166939443537,1
0.5016393442622951,0.5008183306055647,1
0.4885245901639344,0.48936170212765956,1
0.49508196721311476,0.5040916530278232,1
0.49508196721311476,0.49754500818330605,1
0.4918032786885246,0.49427168576104746,1
0.49836065573770494,0.5040916530278232,1
0.4885245901639344,0.4909983633387889,1
0.49508196721311476,0.49918166939443537,1
0.5180327868852459,0.5155482815057283,1
0.49836065573770494,0.49754500818330605,1
0.5049180327868853,0.513911620294599,1
0.5016393442622951,0.502454991816694,1
0.4918032786885246,0.49427168576104746,1
0.5016393442622951,0.5008183306055647,1
0.49508196721311476,0.502454991816694,1
0.49836065573770494,0.5008183306055647,1
0.49836065573770494,0.5008183306055647,1
0.4918032786885246,0.49754500818330605,1
0.5049180327868853,0.5073649754500819,1
0.5081967213114754,0.5057283142389526,1
0.4918032786885246,0.4959083469721768,1
0.5049180327868853,0.5090016366612111,1
0.4918032786885246,0.4959083469721768,1
0.4852459016393443,0.49918166939443537,1
0.4885245901639344,0.49918166939443537,1
0.4918032786885246,0.4909983633387889,1
0.5049180327868853,0.5040916530278232,1
0.5049180327868853,0.5073649754500819,1
0.5016393442622951,0.49754500818330605,1
0.49508196721311476,0.5008183306055647,1
0.4918032786885246,0.49427168576104746,1
0.4852459016393443,0.49263502454991814,1
0.5049180327868853,0.5057283142389526,1
0.4885245901639344,0.48936170212765956,1
0.5114754098360655,0.5040916530278232,1
0.5081967213114754,0.49918166939443537,1
0.49836065573770494,0.49754500818330605,1
0.49508196721311476,0.5008183306055647,1
0.49836065573770494,0.49427168576104746,1
0.5016393442622951,0.5040916530278232,1
0.49836065573770494,0.49918166939443537,1
0.4786885245901639,0.486088379705401,1
0.5114754098360655,0.5155482815057283,1
0.49836065573770494,0.5008183306055647,1
0.49508196721311476,0.4959083469721768,1
0.49508196721311476,0.49918166939443537,1
0.4918032786885246,0.49427168576104746,1
0.4885245901639344,0.49754500818330605,1
0.49836065573770494,0.502454991816694,1
0.4918032786885246,0.4959083469721768,1
0.49508196721311476,0.5040916530278232,1
0.4885245901639344,0.49427168576104746,1
0.49836065573770494,0.5008183306055647,1
0.5081967213114754,0.5090016366612111,1
0.5081967213114754,0.5040916530278232,1
0.5081967213114754,0.5073649754500819,1
0.5016393442622951,0.502454991816694,1
0.4885245901639344,0.49263502454991814,1
0.5016393442622951,0.502454991816694,1
0.5114754098360655,0.5057283142389526,1
0.5049180327868853,0.5008183306055647,1
0.49836065573770494,0.502454991816694,1
0.4786885245901639,0.4828150572831424,1
0.49836065573770494,0.5040916530278232,1
0.4852459016393443,0.4909983633387889,1
0.49508196721311476,0.49263502454991814,1
0.4885245901639344,0.502454991816694,1
0.4918032786885246,0.4909983633387889,1
0.4885245901639344,0.48936170212765956,1
0.5016393442622951,0.5057283142389526,1
0.4885245901639344,0.4877250409165303,1
0.5049180327868853,0.502454991816694,1
0.49836065573770494,0.502454991816694,1
0.5016393442622951,0.49754500818330605,1
0.49508196721311476,0.49918166939443537,1
0.521311475409836,0.5220949263502455,1
0.49836065573770494,0.5008183306055647,1
0.5049180327868853,0.5057283142389526,1
0.4918032786885246,0.48936170212765956,1
0.49836065573770494,0.5040916530278232,1
0.5049180327868853,0.502454991816694,1
0.49508196721311476,0.49263502454991814,1
0.49836065573770494,0.5073649754500819,1
0.4918032786885246,0.5008183306055647,1
0.5049180327868853,0.49918166939443537,1
0.49508196721311476,0.49918166939443537,1
0.5016393442622951,0.49918166939443537,1
0.5016393442622951,0.5057283142389526,1
0.49508196721311476,0.49754500818330605,1
0.49836065573770494,0.49754500818330605,1
0.5049180327868853,0.5057283142389526,1
0.5016393442622951,0.5008183306055647,1
0.4918032786885246,0.49754500818330605,1
0.5016393442622951,0.49918166939443537,1
0.4918032786885246,0.48936170212765956,1
0.5049180327868853,0.5090016366612111,1
0.5081967213114754,0.49754500818330605,1
0.5114754098360655,0.5057283142389526,1
0.49836065573770494,0.49918166939443537,1
0.49836065573770494,0.5008183306055647,1
0.49836065573770494,0.5008183306055647,1
0.5245901639344263,0.5040916530278232,1
0.4885245901639344,0.48936170212765956,1
0.4918032786885246,0.4959083469721768,1
0.49836065573770494,0.502454991816694,1
0.4918032786885246,0.49427168576104746,1
0.5016393442622951,0.49918166939443537,1
0.5081967213114754,0.5057283142389526,1
0.5049180327868853,0.5008183306055647,1
0.5081967213114754,0.5073649754500819,1
0.4918032786885246,0.49263502454991814,1
0.5114754098360655,0.5155482815057283,1
0.4918032786885246,0.4959083469721768,1
0.4918032786885246,0.49754500818330605,1
0.49836065573770494,0.502454991816694,1
0.5114754098360655,0.5057283142389526,1
0.5114754098360655,0.5122749590834698,1
0.49836065573770494,0.49918166939443537,1
0.4885245901639344,0.4877250409165303,1
0.5081967213114754,0.5106382978723404,1
0.49836065573770494,0.502454991816694,1
0.5081967213114754,0.502454991816694,1
0.49836065573770494,0.5040916530278232,1
0.49836065573770494,0.49918166939443537,1
0.4918032786885246,0.49918166939443537,1
0.5016393442622951,0.5008183306055647,1
0.49836065573770494,0.4959083469721768,1
0.5049180327868853,0.5073649754500819,1
0.5081967213114754,0.5090016366612111,1
0.49836065573770494,0.49754500818330605,1
0.49508196721311476,0.4959083469721768,1
0.4885245901639344,0.48936170212765956,1
0.5049180327868853,0.5040916530278232,1
0.5049180327868853,0.502454991816694,1
0.4786885245901639,0.4877250409165303,1
0.49836065573770494,0.5073649754500819,1
0.5049180327868853,0.5073649754500819,1
0.49836065573770494,0.49754500818330605,1
0.49836065573770494,0.5057283142389526,1
0.5016393442622951,0.502454991816694,1
0.5016393442622951,0.5040916530278232,1
0.49508196721311476,0.5040916530278232,1
0.49836065573770494,0.49427168576104746,1
0.5049180327868853,0.5090016366612111,1
0.5147540983606558,0.5073649754500819,1
0.5049180327868853,0.5040916530278232,1
0.4918032786885246,0.5008183306055647,1
0.5081967213114754,0.5040916530278232,1
0.4918032786885246,0.49918166939443537,1
0.4918032786885246,0.49918166939443537,1
0.4918032786885246,0.4959083469721768,1
0.5016393442622951,0.5073649754500819,1
0.5147540983606558,0.502454991816694,1
0.49836065573770494,0.5008183306055647,1
0.5016393442622951,0.5008183306055647,1
0.4885245901639344,0.502454991816694,1
0.49508196721311476,0.502454991816694,1
0.5147540983606558,0.5057283142389526,1
0.49836065573770494,0.49918166939443537,1
0.5114754098360655,0.5106382978723404,1
0.49836065573770494,0.5008183306055647,1
0.5016393442622951,0.49754500818330605,1
0.5081967213114754,0.5040916530278232,1
0.4918032786885246,0.49754500818330605,1
0.4918032786885246,0.49754500818330605,1
0.5081967213114754,0.5090016366612111,1
0.4918032786885246,0.5008183306055647,1
0.5081967213114754,0.5057283142389526,1
0.4885245901639344,0.49427168576104746,1
0.5049180327868853,0.49918166939443537,1
0.4852459016393443,0.4959083469721768,1
0.4885245901639344,0.49263502454991814,1
0.5049180327868853,0.5073649754500819,1
0.4852459016393443,0.49427168576104746,1
0.4918032786885246,0.49427168576104746,1
0.4885245901639344,0.49918166939443537,1
0.49508196721311476,0.49754500818330605,1
0.49508196721311476,0.49918166939443537,1
0.4918032786885246,0.49918166939443537,1
0.4819672131147541,0.486088379705401,1
0.49836065573770494,0.5040916530278232,1
0.4918032786885246,0.5008183306055647,1
0.4918032786885246,0.4909983633387889,1
0.49508196721311476,0.4959083469721768,1
0.49836065573770494,0.49427168576104746,1
0.5180327868852459,0.5073649754500819,1
0.49836065573770494,0.49918166939443537,1
0.47540983606557374,0.4779050736497545,1
0.5180327868852459,0.5106382978723404,1
0.4918032786885246,0.502454991816694,1
0.4885245901639344,0.49263502454991814,1
0.521311475409836,0.5073649754500819,1
0.5016393442622951,0.49918166939443537,1
0.4918032786885246,0.49427168576104746,1
0.49508196721311476,0.49918166939443537,1
0.4885245901639344,0.49427168576104746,1
0.5016393442622951,0.5090016366612111,1
0.4918032786885246,0.49427168576104746,1
0.49836065573770494,0.49754500818330605,1
0.5081967213114754,0.5106382978723404,1
0.49836065573770494,0.49754500818330605,1
0.5016393442622951,0.49427168576104746,1
0.5081967213114754,0.502454991816694,1
0.4819672131147541,0.486088379705401,1
0.5081967213114754,0.5073649754500819,1
0.5049180327868853,0.5040916530278232,1
0.49836065573770494,0.4959083469721768,1
0.5049180327868853,0.5057283142389526,1
0.49836065573770494,0.4959083469721768,1
0.5081967213114754,0.5057283142389526,1
0.5016393442622951,0.502454991816694,1
0.4852459016393443,0.4909983633387889,1
0.49836065573770494,0.5008183306055647,1
0.4786885245901639,0.4909983633387889,1
0.4885245901639344,0.49263502454991814,1
0.49836065573770494,0.5008183306055647,1
0.49508196721311476,0.49918166939443537,1
0.5016393442622951,0.502454991816694,1
0.5049180327868853,0.5155482815057283,1
0.4918032786885246,0.486088379705401,1
0.4918032786885246,0.5008183306055647,1
0.4918032786885246,0.49427168576104746,1
0.4885245901639344,0.4959083469721768,1
0.4918032786885246,0.49754500818330605,1
0.5049180327868853,0.5008183306055647,1
0.4918032786885246,0.49918166939443537,1
0.49836065573770494,0.5057283142389526,1
0.4885245901639344,0.49263502454991814,1
0.5081967213114754,0.5090016366612111,1
0.4885245901639344,0.49754500818330605,1
0.4819672131147541,0.486088379705401,1
0.5081967213114754,0.5057283142389526,1
0.49836065573770494,0.49918166939443537,1
0.5114754098360655,0.5073649754500819,1
0.4852459016393443,0.49263502454991814,1
0.4918032786885246,0.49263502454991814,1
0.49836065573770494,0.502454991816694,1
0.5016393442622951,0.5040916530278232,1
0.5016393442622951,0.49918166939443537,1
0.5016393442622951,0.502454991816694,1
0.49508196721311476,0.5008183306055647,1
0.5081967213114754,0.5090016366612111,1
0.5081967213114754,0.5040916530278232,1
0.4819672131147541,0.4877250409165303,1
0.49836065573770494,0.502454991816694,1
0.49836065573770494,0.49918166939443537,1
0.49508196721311476,0.49918166939443537,1
0.49836065573770494,0.5008183306055647,1
0.4918032786885246,0.5040916530278232,1
0.5180327868852459,0.5073649754500819,1
0.49508196721311476,0.5008183306055647,1
0.4885245901639344,0.49427168576104746,1
0.49836065573770494,0.5040916530278232,1
0.49508196721311476,0.4959083469721768,1
0.5016393442622951,0.49754500818330605,1
0.5049180327868853,0.5090016366612111,1
0.5147540983606558,0.5106382978723404,1
0.49508196721311476,0.49918166939443537,1
0.5081967213114754,0.5073649754500819,1
0.4885245901639344,0.4877250409165303,1
0.4918032786885246,0.49754500818330605,1
0.4918032786885246,0.4959083469721768,1
0.4918032786885246,0.4959083469721768,1
0.5114754098360655,0.513911620294599,1
0.4852459016393443,0.4877250409165303,1
0.4852459016393443,0.49263502454991814,1
0.49508196721311476,0.49754500818330605,1
0.49836065573770494,0.4959083469721768,1
0.5049180327868853,0.513911620294599,1
0.49836065573770494,0.5008183306055647,1
0.5180327868852459,0.5057283142389526,1
0.49508196721311476,0.502454991816694,1
0.4885245901639344,0.49263502454991814,1
0.5049180327868853,0.5090016366612111,1
0.4885245901639344,0.49918166939443537,1
0.5016393442622951,0.5008183306055647,1
0.5147540983606558,0.5122749590834698,1
0.5016393442622951,0.5040916530278232,1
0.4918032786885246,0.49754500818330605,1
0.49836065573770494,0.5008183306055647,1
0.49836065573770494,0.5008183306055647,1
0.5049180327868853,0.5057283142389526,1
0.5114754098360655,0.5057283142389526,1
0.4918032786885246,0.4909983633387889,1
0.5016393442622951,0.5090016366612111,1
0.5114754098360655,0.5106382978723404,1
0.4918032786885246,0.49754500818330605,1
0.4918032786885246,0.4959083469721768,1
0.521311475409836,0.5171849427168577,1
0.5049180327868853,0.5057283142389526,1
0.5049180327868853,0.5008183306055647,1
0.49508196721311476,0.49263502454991814,1
0.49836065573770494,0.5057283142389526,1
0.49508196721311476,0.49427168576104746,1
0.4885245901639344,0.49263502454991814,1
0.5081967213114754,0.5040916530278232,1
0.4918032786885246,0.49263502454991814,1
0.49836065573770494,0.5040916530278232,1
0.49836065573770494,0.4959083469721768,1
0.4852459016393443,0.4877250409165303,1
0.5016393442622951,0.5090016366612111,1
0.49508196721311476,0.49754500818330605,1
0.5016393442622951,0.49918166939443537,1
0.49836065573770494,0.49754500818330605,1
0.49836065573770494,0.49754500818330605,1
0.49836065573770494,0.5008183306055647,1
0.4819672131147541,0.4909983633387889,1
0.5049180327868853,0.502454991816694,1
0.5245901639344263,0.5220949263502455,1
0.5114754098360655,0.5073649754500819,1
0.4918032786885246,0.4959083469721768,1
0.5147540983606558,0.5090016366612111,1
0.4885245901639344,0.49427168576104746,1
0.5049180327868853,0.5073649754500819,1
0.5081967213114754,0.5073649754500819,1
0.5049180327868853,0.49754500818330605,1
0.5049180327868853,0.513911620294599,1
0.4918032786885246,0.5008183306055647,1
0.49508196721311476,0.49427168576104746,1
0.4918032786885246,0.49918166939443537,1
0.49836065573770494,0.49918166939443537,1
0.49836065573770494,0.49754500818330605,1
0.4885245901639344,0.49427168576104746,1
0.4819672131147541,0.4877250409165303,1
0.5016393442622951,0.5073649754500819,1
0.4918032786885246,0.49918166939443537,1
0.49508196721311476,0.49263502454991814,1
0.5016393442622951,0.5040916530278232,1
0.49836065573770494,0.4909983633387889,1
0.4885245901639344,0.4959083469721768,1
0.4918032786885246,0.49263502454991814,1
0.4918032786885246,0.49427168576104746,1
0.49508196721311476,0.49918166939443537,1
0.5180327868852459,0.5090016366612111,1
0.4852459016393443,0.49754500818330605,1
0.5180327868852459,0.5122749590834698,1
0.4918032786885246,0.49427168576104746,1
0.49508196721311476,0.5008183306055647,1
0.5049180327868853,0.5090016366612111,1
0.4885245901639344,0.4877250409165303,1
0.49836065573770494,0.502454991816694,1
0.5049180327868853,0.5122749590834698,1
0.5049180327868853,0.5040916530278232,1
0.5049180327868853,0.502454991816694,1
0.49836065573770494,0.4959083469721768,1
0.49836065573770494,0.5057283142389526,1
0.49508196721311476,0.4959083469721768,1
0.4819672131147541,0.4844517184942717,1
0.5114754098360655,0.5057283142389526,1
0.5016393442622951,0.5008183306055647,1
0.5081967213114754,0.5073649754500819,1
0.49836065573770494,0.502454991816694,1
0.4819672131147541,0.48936170212765956,1
0.5049180327868853,0.5090016366612111,1
0.4918032786885246,0.5008183306055647,1
0.49836065573770494,0.49754500818330605,1
0.5245901639344263,0.5155482815057283,1
0.5147540983606558,0.5057283142389526,1
0.4918032786885246,0.49754500818330605,1
0.49836065573770494,0.49918166939443537,1
0.49836065573770494,0.49918166939443537,1
0.5081967213114754,0.5122749590834698,1
0.5049180327868853,0.5073649754500819,1
0.49508196721311476,0.49263502454991814,1
0.5016393442622951,0.5073649754500819,1
0.4852459016393443,0.49754500818330605,1
0.4885245901639344,0.49427168576104746,1
0.5049180327868853,0.5040916530278232,1
0.4885245901639344,0.49263502454991814,1
0.49508196721311476,0.5008183306055647,1
0.49508196721311476,0.502454991816694,1
0.5081967213114754,0.49754500818330605,1
0.49836065573770494,0.49754500818330605,1
0.4885245901639344,0.4959083469721768,1
0.4885245901639344,0.48936170212765956,1
0.4786885245901639,0.4795417348608838,1
0.49836065573770494,0.49918166939443537,1
0.49508196721311476,0.49918166939443537,1
0.5147540983606558,0.5188216039279869,1
0.49508196721311476,0.4959083469721768,1
0.4885245901639344,0.4959083469721768,1
0.4852459016393443,0.48936170212765956,1
0.5016393442622951,0.502454991816694,1
0.5016393442622951,0.5073649754500819,1
0.4819672131147541,0.48936170212765956,1
0.5049180327868853,0.502454991816694,1
0.5081967213114754,0.5073649754500819,1
0.46885245901639344,0.4746317512274959,1
0.5016393442622951,0.5008183306055647,1
0.5081967213114754,0.5122749590834698,1
0.49836065573770494,0.5040916530278232,1
0.4918032786885246,0.5008183306055647,1
0.49836065573770494,0.4877250409165303,1
0.4918032786885246,0.4959083469721768,1
0.49508196721311476,0.4959083469721768,1
0.47540983606557374,0.4877250409165303,1
0.49836065573770494,0.5090016366612111,1
0.4819672131147541,0.4844517184942717,1
0.5016393442622951,0.502454991816694,1
0.4819672131147541,0.48936170212765956,1
0.49836065573770494,0.49427168576104746,1
0.49508196721311476,0.49754500818330605,1
0.5049180327868853,0.5040916530278232,1
0.4885245901639344,0.4909983633387889,1
0.4885245901639344,0.5008183306055647,1
0.49508196721311476,0.5008183306055647,1
0.4885245901639344,0.4959083469721768,1
0.4918032786885246,0.5008183306055647,1
0.5081967213114754,0.502454991816694,1
0.5016393442622951,0.49918166939443537,1
0.49836065573770494,0.502454991816694,1
0.5016393442622951,0.4959083469721768,1
0.4885245901639344,0.49263502454991814,1
0.4786885245901639,0.4779050736497545,1
0.5049180327868853,0.5040916530278232,1
0.49836065573770494,0.49263502454991814,1
0.4918032786885246,0.4959083469721768,1
0.4885245901639344,0.4959083469721768,1
0.521311475409836,0.5171849427168577,1
0.4852459016393443,0.4909983633387889,1
0.5049180327868853,0.5073649754500819,1
0.5081967213114754,0.513911620294599,1
0.49836065573770494,0.49918166939443537,1
0.5016393442622951,0.502454991816694,1
0.4852459016393443,0.4795417348608838,1
0.5180327868852459,0.5253682487725041,1
0.4885245901639344,0.49263502454991814,1
0.5081967213114754,0.5090016366612111,1
0.4819672131147541,0.48936170212765956,1
0.4852459016393443,0.48936170212765956,1
0.5180327868852459,0.5188216039279869,1
0.5114754098360655,0.5171849427168577,1
0.49508196721311476,0.49427168576104746,1
0.5016393442622951,0.5057283142389526,1
0.4885245901639344,0.4909983633387889,1
0.4885245901639344,0.49263502454991814,1
0.4786885245901639,0.48936170212765956,1
0.4918032786885246,0.4959083469721768,1
0.4819672131147541,0.49263502454991814,1
0.5245901639344263,0.5188216039279869,1
0.5049180327868853,0.49263502454991814,1
0.5114754098360655,0.502454991816694,1
0.5016393442622951,0.5090016366612111,1
0.5114754098360655,0.5106382978723404,1
0.5016393442622951,0.5073649754500819,1
0.49836065573770494,0.5073649754500819,1
0.49508196721311476,0.49263502454991814,1
0.49836065573770494,0.49754500818330605,1
0.4819672131147541,0.4844517184942717,1
0.4852459016393443,0.502454991816694,1
0.4852459016393443,0.4877250409165303,1
0.49508196721311476,0.5008183306055647,1
0.49508196721311476,0.502454991816694,1
0.4852459016393443,0.49263502454991814,1
0.49508196721311476,0.502454991816694,1
0.5049180327868853,0.5040916530278232,1
0.49836065573770494,0.5040916530278232,1
0.4852459016393443,0.4909983633387889,1
0.5114754098360655,0.49918166939443537,1
0.5016393442622951,0.4959083469721768,1
0.49508196721311476,0.49918166939443537,1
0.49508196721311476,0.49427168576104746,1
0.4918032786885246,0.4959083469721768,1
0.5049180327868853,0.5057283142389526,1
0.4852459016393443,0.4909983633387889,1
0.4918032786885246,0.49427168576104746,1
0.5049180327868853,0.502454991816694,1
0.49508196721311476,0.49754500818330605,1
0.4885245901639344,0.48936170212765956,1
0.49508196721311476,0.49427168576104746,1
0.5081967213114754,0.5188216039279869,1
0.5016393442622951,0.502454991816694,1
0.49836065573770494,0.4959083469721768,1
0.49836065573770494,0.49918166939443537,1
0.5081967213114754,0.502454991816694,1
0.5081967213114754,0.5057283142389526,1
0.4918032786885246,0.4959083469721768,1
0.4918032786885246,0.4959083469721768,1
0.5081967213114754,0.5008183306055647,1
0.5049180327868853,0.5090016366612111,1
0.4786885245901639,0.4877250409165303,1
0.47540983606557374,0.48117839607201307,1
0.5147540983606558,0.5188216039279869,1
0.4918032786885246,0.49918166939443537,1
0.49836065573770494,0.49754500818330605,1
0.49508196721311476,0.5040916530278232,1
0.5049180327868853,0.5040916530278232,1
0.49508196721311476,0.49754500818330605,1
0.4852459016393443,0.4909983633387889,1
0.4852459016393443,0.49427168576104746,1
0.5245901639344263,0.5171849427168577,1
0.5049180327868853,0.5073649754500819,1
0.5016393442622951,0.49918166939443537,1
0.4852459016393443,0.48936170212765956,1
0.5016393442622951,0.502454991816694,1
0.5180327868852459,0.5220949263502455,1
0.47540983606557374,0.4762684124386252,1
0.46557377049180326,0.4664484451718494,1
0.5278688524590164,0.5270049099836334,1
0.5081967213114754,0.5057283142389526,1
0.4852459016393443,0.4877250409165303,1
0.4885245901639344,0.4909983633387889,1
0.4557377049180328,0.4533551554828151,1
0.5311475409836065,0.5335515548281505,1
0.4786885245901639,0.5008183306055647,1
0.3639344262295082,0.3649754500818331,1
0.4786885245901639,0.48117839607201307,1
0.5573770491803278,0.5646481178396072,1
0.5049180327868853,0.5090016366612111,1
0.521311475409836,0.5286415711947627,1
0.5245901639344263,0.5319148936170213,1
0.5081967213114754,0.5106382978723404,1
0.5245901639344263,0.5319148936170213,1
0.521311475409836,0.5220949263502455,1
0.4721311475409836,0.4779050736497545,0
0.4786885245901639,0.4713584288052373,0
0.5180327868852459,0.513911620294599,0
0.49836065573770494,0.5008183306055647,0
0.49836065573770494,0.502454991816694,0
0.49836065573770494,0.502454991816694,0
0.5377049180327869,0.5417348608837971,0
0.5377049180327869,0.5384615384615384,0
0.4721311475409836,0.4779050736497545,0
0.4786885245901639,0.48117839607201307,0
0.5049180327868853,0.5073649754500819,0
0.4786885245901639,0.4762684124386252,0
0.4852459016393443,0.4877250409165303,0
0.49508196721311476,0.5008183306055647,0
0.4786885245901639,0.4828150572831424,0
0.4885245901639344,0.4909983633387889,0
0.4918032786885246,0.49263502454991814,0
0.4885245901639344,0.48936170212765956,0
0.4852459016393443,0.4877250409165303,0
0.4885245901639344,0.486088379705401,0
0.49836065573770494,0.502454991816694,0
0.4918032786885246,0.49427168576104746,0
0.49836065573770494,0.5008183306055647,0
0.5016393442622951,0.5040916530278232,0
